EC-Lab ASCII FILE
Nb header lines : 59                          

Cyclic Voltammetry

Run on channel : 1 (SN 1153)
User : 
Electrode connection : standard
Potential control : Ewe
Ewe ctrl range : min = -2,50 V, max = 2,50 V
Ewe,I filtering : 50 kHz
Safety Limits :
	Do not start on E overload
Channel : Grounded
Acquisition started on : 12/16/2024 17:47:38.305
Loaded Setting File :  C:\Users\lab10\Desktop\Luka Suhadolnik\K12-3_FeCoNiCuMn\6 OER.mps
Saved on :
	File : 4 OER_03_CV_C01.mpr
	Directory : C:\Users\lab10\Desktop\Luka Suhadolnik\K11-4\
	Host : 192.168.0.28
Device : SP-200 (SN 0067)
Address : USB
EC-Lab for windows v11.52 (software)
Internet server v11.52 (firmware)
Command interpretor v11.52 (firmware)
Electrode material : 
Initial state : 
Electrolyte : 
Comments : 
Cable : standard
Electrode surface area : 0,001 cm²
Characteristic mass : 0,001 g
Equivalent Weight : 0,000 g/eq.
Density : 0,000 g/cm3
Volume (V) : 0,001 cm³
Cycle Definition : Charge/Discharge alternance
Ei (V)              0,277               
vs.                 Ref                 
dE/dt               2,000               
dE/dt unit          mV/s                
E1 (V)              0,627               
vs.                 Ref                 
Step percent        85                  
N                   17                  
E range min (V)     -2,500              
E range max (V)     2,500               
I Range             100 mA              
I Range min         Unset               
I Range max         Unset               
I Range init        Unset               
Bandwidth           8                   
E2 (V)              0,277               
vs.                 Ref                 
nc cycles           0                   
Reverse Scan        1                   
Ef (V)              0,277               
vs.                 Ref                 

mode	ox/red	error	control changes	counter inc.	time/s	control/V	Ewe/V	<I>/mA	cycle number	(Q-Qo)/C	I Range	Rcmp/Ohm	step time/s	P/W	
2	1	0	1	0	5,100999871137901E+000	2,7696514E-001	2,7624631E-001	7,192376255989075E-001	1,000000000000000E+000	0,0000000E+000	38	4,5899997E+000	0,000000000000000E+000	1,9868674E-004
2	1	0	1	0	5,550899859772471E+000	2,7786469E-001	2,7717280E-001	6,963074187493501E-001	1,000000000000000E+000	3,1454980E-004	38	4,5899973E+000	0,000000000000000E+000	1,9299748E-004
2	1	0	1	0	6,400699838304718E+000	2,7956429E-001	2,7886793E-001	6,443135397838304E-001	1,000000000000000E+000	8,8386133E-004	38	4,5899973E+000	8,497999785322463E-001	1,7967838E-004
2	1	0	1	0	7,250499816836964E+000	2,8126389E-001	2,8054932E-001	6,015124816286690E-001	1,000000000000000E+000	1,4131105E-003	38	4,5899973E+000	1,699599957064493E+000	1,6875392E-004
2	1	0	1	0	8,100299795369210E+000	2,8296354E-001	2,8223512E-001	5,663549146965376E-001	1,000000000000000E+000	1,9094266E-003	38	4,5899973E+000	2,549399935596739E+000	1,5984525E-004
2	1	0	1	0	8,950099773901457E+000	2,8466311E-001	2,8393349E-001	5,372756719273896E-001	1,000000000000000E+000	2,3785967E-003	38	4,5899973E+000	3,399199914128985E+000	1,5255055E-004
2	1	0	1	0	9,799899752433703E+000	2,8636268E-001	2,8563079E-001	5,123505535609425E-001	1,000000000000000E+000	2,8249505E-003	38	4,5899973E+000	4,248999892661232E+000	1,4634310E-004
2	1	0	0	0	1,064959973096848E+001	2,8806216E-001	2,8733239E-001	4,907212360035640E-001	1,000000000000000E+000	3,2515347E-003	38	4,5899978E+000	5,098699871196004E+000	1,4100010E-004
2	1	0	1	0	1,149929970950325E+001	2,8976151E-001	2,8903016E-001	4,724470873515028E-001	1,000000000000000E+000	3,6612458E-003	38	4,5899973E+000	5,948399849730777E+000	1,3655146E-004
2	1	0	1	0	1,234909968803549E+001	2,9146111E-001	2,9074499E-001	4,577510891597321E-001	1,000000000000000E+000	4,0570386E-003	38	4,5899973E+000	6,798199828263023E+000	1,3308883E-004
2	1	0	1	0	1,319889966656774E+001	2,9316068E-001	2,9244089E-001	4,444111710671237E-001	1,000000000000000E+000	4,4409749E-003	38	4,5899973E+000	7,647999806795269E+000	1,2996400E-004
2	1	0	1	0	1,404869964509999E+001	2,9486033E-001	2,9415709E-001	4,324822804115698E-001	1,000000000000000E+000	4,8142523E-003	38	4,5899973E+000	8,497799785327516E+000	1,2721773E-004
2	1	0	1	0	1,489849962363223E+001	2,9655990E-001	2,9585072E-001	4,218384132190627E-001	1,000000000000000E+000	5,1779570E-003	38	4,5899973E+000	9,347599763859762E+000	1,2480120E-004
2	1	0	1	0	1,574829960216448E+001	2,9825953E-001	2,9755741E-001	4,129981329508539E-001	1,000000000000000E+000	5,5334270E-003	38	4,5899973E+000	1,019739974239201E+001	1,2289066E-004
2	1	0	1	0	1,659809958069673E+001	2,9995912E-001	2,9925618E-001	4,049057539659389E-001	1,000000000000000E+000	5,8817626E-003	38	4,5899973E+000	1,104719972092425E+001	1,2117055E-004
2	1	0	1	0	1,744789955922897E+001	3,0165872E-001	3,0095702E-001	3,980355063252317E-001	1,000000000000000E+000	6,2237582E-003	38	4,5899973E+000	1,189699969945650E+001	1,1979158E-004
2	1	0	1	0	1,829759953776374E+001	3,0335811E-001	3,0263767E-001	3,921912795278510E-001	1,000000000000000E+000	6,5603144E-003	38	4,5899973E+000	1,274669967799127E+001	1,1869185E-004
2	1	0	1	0	1,914729951629852E+001	3,0505753E-001	3,0433723E-001	3,871813396836972E-001	1,000000000000000E+000	6,8923235E-003	38	4,5899973E+000	1,359639965652605E+001	1,1783370E-004
2	1	0	1	0	1,999709949483076E+001	3,0675712E-001	3,0603448E-001	3,822852214421673E-001	1,000000000000000E+000	7,2201947E-003	38	4,5899973E+000	1,444619963505829E+001	1,1699246E-004
2	1	0	1	0	2,084689947336301E+001	3,0845672E-001	3,0773997E-001	3,782637677540972E-001	1,000000000000000E+000	7,5442879E-003	38	4,5899973E+000	1,529599961359054E+001	1,1640688E-004
2	1	0	1	0	2,169669945189526E+001	3,1015632E-001	3,0943120E-001	3,745994104143637E-001	1,000000000000000E+000	7,8651384E-003	38	4,5899973E+000	1,614579959212278E+001	1,1591274E-004
2	1	0	1	0	2,254649943042750E+001	3,1185594E-001	3,1113216E-001	3,712439740460614E-001	1,000000000000000E+000	8,1830435E-003	38	4,5899973E+000	1,699559957065503E+001	1,1550594E-004
2	1	0	1	0	2,339629940895975E+001	3,1355548E-001	3,1284374E-001	3,685538347074324E-001	1,000000000000000E+000	8,4984060E-003	38	4,5899973E+000	1,784539954918728E+001	1,1529976E-004
2	1	0	1	0	2,424609938749200E+001	3,1525508E-001	3,1455165E-001	3,663184826787145E-001	1,000000000000000E+000	8,8117430E-003	38	4,5899973E+000	1,869519952771952E+001	1,1522608E-004
2	1	0	1	0	2,509589936602424E+001	3,1695467E-001	3,1624481E-001	3,642123061436761E-001	1,000000000000000E+000	9,1232294E-003	38	4,5899973E+000	1,954499950625177E+001	1,1518025E-004
2	1	0	1	0	2,594559934455901E+001	3,1865406E-001	3,1794685E-001	3,626597556799473E-001	1,000000000000000E+000	9,4331615E-003	38	4,5899973E+000	2,039469948478654E+001	1,1530652E-004
2	1	0	1	0	2,679529932309379E+001	3,2035351E-001	3,1965289E-001	3,614655310618584E-001	1,000000000000000E+000	9,7419405E-003	38	4,5899973E+000	2,124439946332132E+001	1,1554350E-004
2	1	0	1	0	2,764509930162603E+001	3,2205307E-001	3,2136115E-001	3,602345391835113E-001	1,000000000000000E+000	1,0049785E-002	38	4,5899973E+000	2,209419944185356E+001	1,1576539E-004
2	1	0	1	0	2,849489928015828E+001	3,2375270E-001	3,2304725E-001	3,593053807260089E-001	1,000000000000000E+000	1,0356713E-002	38	4,5899973E+000	2,294399942038581E+001	1,1607262E-004
2	1	0	1	0	2,934469925869053E+001	3,2545230E-001	3,2476279E-001	3,577796209285840E-001	1,000000000000000E+000	1,0662639E-002	38	4,5899973E+000	2,379379939891805E+001	1,1619351E-004
2	1	0	1	0	3,019449923722277E+001	3,2715189E-001	3,2645026E-001	3,568898691862299E-001	1,000000000000000E+000	1,0967545E-002	38	4,5899973E+000	2,464359937745030E+001	1,1650679E-004
2	1	0	1	0	3,104429921575502E+001	3,2885146E-001	3,2815233E-001	3,557443472005888E-001	1,000000000000000E+000	1,1271606E-002	38	4,5899973E+000	2,549339935598255E+001	1,1673834E-004
2	1	0	1	0	3,189409919428726E+001	3,3055109E-001	3,2986411E-001	3,543212540780951E-001	1,000000000000000E+000	1,1574583E-002	38	4,5899973E+000	2,634319933451479E+001	1,1687787E-004
2	1	0	1	0	3,274389917281951E+001	3,3225071E-001	3,3154717E-001	3,528577616044681E-001	1,000000000000000E+000	1,1876440E-002	38	4,5899973E+000	2,719299931304704E+001	1,1698899E-004
2	1	0	1	0	3,359369915135176E+001	3,3395028E-001	3,3326298E-001	3,577581120052464E-001	1,000000000000000E+000	1,2179976E-002	38	4,5899973E+000	2,804279929157929E+001	1,1922754E-004
2	1	0	1	0	3,444329912988906E+001	3,3564949E-001	3,3495557E-001	3,557448255875499E-001	1,000000000000000E+000	1,2484444E-002	38	4,5899973E+000	2,889239927011658E+001	1,1915871E-004
2	1	0	1	0	3,529309910842130E+001	3,3734909E-001	3,3666790E-001	3,542796146512406E-001	1,000000000000000E+000	1,2787569E-002	38	4,5899973E+000	2,974219924864883E+001	1,1927457E-004
2	1	0	1	0	3,614289908695355E+001	3,3904868E-001	3,3836117E-001	3,529371145553704E-001	1,000000000000000E+000	1,3089520E-002	38	4,5899973E+000	3,059199922718108E+001	1,1942022E-004
2	1	0	1	0	3,699269906548579E+001	3,4074828E-001	3,4006542E-001	3,521442571812621E-001	1,000000000000000E+000	1,3390637E-002	38	4,5899973E+000	3,144179920571332E+001	1,1975208E-004
2	1	0	1	0	3,784249904401804E+001	3,4244791E-001	3,4174860E-001	3,514253093601267E-001	1,000000000000000E+000	1,3691187E-002	38	4,5899973E+000	3,229159918424557E+001	1,2009910E-004
2	1	0	1	0	3,869229902255029E+001	3,4414747E-001	3,4344250E-001	3,507288678136461E-001	1,000000000000000E+000	1,3991139E-002	38	4,5899973E+000	3,314139916277782E+001	1,2045520E-004
2	1	0	1	0	3,954209900108253E+001	3,4584710E-001	3,4515297E-001	3,538489616654463E-001	1,000000000000000E+000	1,4292110E-002	38	4,5899973E+000	3,399119914131006E+001	1,2213203E-004
2	1	0	1	0	4,039189897961478E+001	3,4754667E-001	3,4683782E-001	3,529383447269163E-001	1,000000000000000E+000	1,4594163E-002	38	4,5899973E+000	3,484099911984231E+001	1,2241237E-004
2	1	0	1	0	4,124169895814703E+001	3,4924626E-001	3,4854573E-001	3,526354956746429E-001	1,000000000000000E+000	1,4895732E-002	38	4,5899973E+000	3,569079909837455E+001	1,2290959E-004
2	1	0	1	0	4,209139893668180E+001	3,5094568E-001	3,5023186E-001	3,525314237196788E-001	1,000000000000000E+000	1,5197135E-002	38	4,5899973E+000	3,654049907690933E+001	1,2346773E-004
2	1	0	1	0	4,294109891521657E+001	3,5264510E-001	3,5194004E-001	3,521837768111862E-001	1,000000000000000E+000	1,5498439E-002	38	4,5899973E+000	3,739019905544410E+001	1,2394757E-004
2	1	0	1	0	4,379089889374882E+001	3,5434467E-001	3,5364079E-001	3,524826217546453E-001	1,000000000000000E+000	1,5799833E-002	38	4,5899973E+000	3,823999903397635E+001	1,2465223E-004
2	1	0	1	0	4,464069887228106E+001	3,5604429E-001	3,5531980E-001	3,528594295753518E-001	1,000000000000000E+000	1,6101580E-002	38	4,5899973E+000	3,908979901250859E+001	1,2537795E-004
2	1	0	1	0	4,549049885081331E+001	3,5774386E-001	3,5703939E-001	3,534001889428744E-001	1,000000000000000E+000	1,6403785E-002	38	4,5899973E+000	3,993959899104084E+001	1,2617779E-004
2	1	0	1	0	4,634029882934556E+001	3,5944349E-001	3,5871479E-001	3,538690314867186E-001	1,000000000000000E+000	1,6706515E-002	38	4,5899973E+000	4,078939896957309E+001	1,2693806E-004
2	1	0	1	0	4,719009880787780E+001	3,6114305E-001	3,6042073E-001	3,543226012374081E-001	1,000000000000000E+000	1,7009718E-002	38	4,5899973E+000	4,163919894810533E+001	1,2770521E-004
2	1	0	1	0	4,803989878641005E+001	3,6284265E-001	3,6213300E-001	3,551560413755515E-001	1,000000000000000E+000	1,7313549E-002	38	4,5899973E+000	4,248899892663758E+001	1,2861373E-004
2	1	0	1	0	4,888969876494230E+001	3,6454231E-001	3,6381501E-001	3,562729766421198E-001	1,000000000000000E+000	1,7618276E-002	38	4,5899973E+000	4,333879890516982E+001	1,2961746E-004
2	1	0	1	0	4,973949874347454E+001	3,6624187E-001	3,6554074E-001	3,584374907619790E-001	1,000000000000000E+000	1,7924534E-002	38	4,5899973E+000	4,418859888370207E+001	1,3102351E-004
2	1	0	1	0	5,058909872201184E+001	3,6794111E-001	3,6722189E-001	3,605919583713133E-001	1,000000000000000E+000	1,8232638E-002	38	4,5899973E+000	4,503819886223937E+001	1,3241726E-004
2	1	0	1	0	5,143889870054409E+001	3,6964068E-001	3,6892933E-001	3,630852601874413E-001	1,000000000000000E+000	1,8542988E-002	38	4,5899973E+000	4,588799884077162E+001	1,3395280E-004
2	1	0	1	0	5,228869867907633E+001	3,7134027E-001	3,7063774E-001	3,658763258269184E-001	1,000000000000000E+000	1,8855657E-002	38	4,5899973E+000	4,673779881930386E+001	1,3560758E-004
2	1	0	1	0	5,313849865760858E+001	3,7303987E-001	3,7234780E-001	3,685662800459784E-001	1,000000000000000E+000	1,9170752E-002	38	4,5899973E+000	4,758759879783611E+001	1,3723485E-004
2	1	0	1	0	5,398829863614083E+001	3,7473941E-001	3,7404090E-001	3,711928702128997E-001	1,000000000000000E+000	1,9488189E-002	38	4,5899973E+000	4,843739877636835E+001	1,3884132E-004
2	1	0	1	0	5,483809861467307E+001	3,7643912E-001	3,7575218E-001	3,741473106076363E-001	1,000000000000000E+000	1,9808130E-002	38	4,5899973E+000	4,928719875490060E+001	1,4058666E-004
2	1	0	1	0	5,568789859320532E+001	3,7813866E-001	3,7743738E-001	3,772794942229725E-001	1,000000000000000E+000	2,0130780E-002	38	4,5899973E+000	5,013699873343285E+001	1,4239938E-004
2	1	0	1	0	5,653769857173756E+001	3,7983826E-001	3,7914318E-001	3,814660859473920E-001	1,000000000000000E+000	2,0456634E-002	38	4,5899973E+000	5,098679871196509E+001	1,4463026E-004
2	1	0	1	0	5,738749855026981E+001	3,8153785E-001	3,8083321E-001	3,860973380833905E-001	1,000000000000000E+000	2,0786306E-002	38	4,5899973E+000	5,183659869049734E+001	1,4703869E-004
2	1	0	1	0	5,823709852880711E+001	3,8323706E-001	3,8253048E-001	3,906881917228624E-001	1,000000000000000E+000	2,1120010E-002	38	4,5899973E+000	5,268619866903464E+001	1,4945015E-004
2	1	0	1	0	5,908689850733936E+001	3,8493669E-001	3,8423106E-001	3,957853187359461E-001	1,000000000000000E+000	2,1458063E-002	38	4,5899973E+000	5,353599864756688E+001	1,5207301E-004
2	1	0	1	0	5,993669848587160E+001	3,8663626E-001	3,8593152E-001	4,015220790765452E-001	1,000000000000000E+000	2,1800879E-002	38	4,5899973E+000	5,438579862609913E+001	1,5496003E-004
2	1	0	1	0	6,078649846440385E+001	3,8833585E-001	3,8761675E-001	4,077813303016700E-001	1,000000000000000E+000	2,2148905E-002	38	4,5899973E+000	5,523559860463138E+001	1,5806287E-004
2	1	0	1	0	6,163629844293609E+001	3,9003542E-001	3,8930619E-001	4,142662227506699E-001	1,000000000000000E+000	2,2502506E-002	38	4,5899973E+000	5,608539858316362E+001	1,6127640E-004
2	1	0	1	0	6,248609842146834E+001	3,9173505E-001	3,9101952E-001	4,215011901618376E-001	1,000000000000000E+000	2,2862036E-002	38	4,5899973E+000	5,693519856169587E+001	1,6481520E-004
2	1	0	1	0	6,333589840000059E+001	3,9343467E-001	3,9271665E-001	4,295448628215264E-001	1,000000000000000E+000	2,3228265E-002	38	4,5899973E+000	5,778499854022812E+001	1,6868942E-004
2	1	0	1	0	6,418569837853283E+001	3,9513424E-001	3,9443028E-001	4,379717065523887E-001	1,000000000000000E+000	2,3601661E-002	38	4,5899973E+000	5,863479851876036E+001	1,7274931E-004
2	1	0	1	0	6,503549835706508E+001	3,9683387E-001	3,9612448E-001	4,460473126924698E-001	1,000000000000000E+000	2,3982137E-002	38	4,5899973E+000	5,948459849729261E+001	1,7669026E-004
2	1	0	1	0	6,588509833560238E+001	3,9853305E-001	3,9781770E-001	4,551017970928717E-001	1,000000000000000E+000	2,4369989E-002	38	4,5899973E+000	6,033419847582991E+001	1,8104755E-004
2	1	0	1	0	6,673489831413463E+001	4,0023270E-001	3,9953694E-001	4,648455865788090E-001	1,000000000000000E+000	2,4766110E-002	38	4,5899973E+000	6,118399845436215E+001	1,8572298E-004
2	1	0	1	0	6,758469829266687E+001	4,0193230E-001	4,0124446E-001	4,747188864082341E-001	1,000000000000000E+000	2,5170678E-002	38	4,5899973E+000	6,203379843289440E+001	1,9047833E-004
2	1	0	1	0	6,843449827119912E+001	4,0363187E-001	4,0294993E-001	4,858687129280606E-001	1,000000000000000E+000	2,5584368E-002	38	4,5899973E+000	6,288359841142665E+001	1,9578077E-004
2	1	0	1	0	6,928429824973136E+001	4,0533146E-001	4,0463519E-001	4,975312383427992E-001	1,000000000000000E+000	2,6007947E-002	38	4,5899973E+000	6,373339838995889E+001	2,0131865E-004
2	1	0	1	0	7,013409822826361E+001	4,0703103E-001	4,0633580E-001	5,104440548949949E-001	1,000000000000000E+000	2,6441999E-002	38	4,5899973E+000	6,458319836849114E+001	2,0741169E-004
2	1	0	1	0	7,098389820679586E+001	4,0873069E-001	4,0803987E-001	5,239106963227540E-001	1,000000000000000E+000	2,6887393E-002	38	4,5899973E+000	6,543299834702339E+001	2,1377645E-004
2	1	0	1	0	7,183369818532810E+001	4,1043025E-001	4,0974602E-001	5,384561512009816E-001	1,000000000000000E+000	2,7344737E-002	38	4,5899973E+000	6,628279832555563E+001	2,2063026E-004
2	1	0	1	0	7,268349816386035E+001	4,1212985E-001	4,1144913E-001	5,532110454276058E-001	1,000000000000000E+000	2,7814694E-002	38	4,5899973E+000	6,713259830408788E+001	2,2761821E-004
2	1	0	1	0	7,353309814239765E+001	4,1382909E-001	4,1315082E-001	5,688702579967559E-001	1,000000000000000E+000	2,8297657E-002	38	4,5899973E+000	6,798219828262518E+001	2,3502921E-004
2	1	0	1	0	7,438289812092989E+001	4,1552868E-001	4,1484585E-001	5,860044854511557E-001	1,000000000000000E+000	2,8794805E-002	38	4,5899973E+000	6,883199826115742E+001	2,4310153E-004
2	1	0	1	0	7,523269809946214E+001	4,1722828E-001	4,1653237E-001	6,047140782486249E-001	1,000000000000000E+000	2,9307233E-002	38	4,5899973E+000	6,968179823968967E+001	2,5188300E-004
2	1	0	1	0	7,608249807799439E+001	4,1892782E-001	4,1823870E-001	6,257915814352728E-001	1,000000000000000E+000	2,9836688E-002	38	4,5899973E+000	7,053159821822192E+001	2,6173025E-004
2	1	0	1	0	7,693229805652663E+001	4,2062744E-001	4,1993397E-001	6,446244869446680E-001	1,000000000000000E+000	3,0383164E-002	38	4,5899973E+000	7,138139819675416E+001	2,7069973E-004
2	1	0	1	0	7,778209803505888E+001	4,2232707E-001	4,2162985E-001	6,650267332553428E-001	1,000000000000000E+000	3,0946318E-002	38	4,5899973E+000	7,223119817528641E+001	2,8039512E-004
2	1	0	1	0	7,863189801359113E+001	4,2402664E-001	4,2331761E-001	6,863629451431379E-001	1,000000000000000E+000	3,1527381E-002	38	4,5899973E+000	7,308099815381865E+001	2,9054953E-004
2	1	0	1	0	7,948169799212337E+001	4,2572626E-001	4,2501396E-001	7,101920745410082E-001	1,000000000000000E+000	3,2127850E-002	38	4,5899973E+000	7,393079813235090E+001	3,0184156E-004
2	1	0	1	0	8,033149797065562E+001	4,2742583E-001	4,2674765E-001	7,342543046001624E-001	1,000000000000000E+000	3,2748833E-002	38	4,5899973E+000	7,478059811088315E+001	3,1334130E-004
2	1	0	1	0	8,118119794919039E+001	4,2912522E-001	4,2846254E-001	7,599802848839765E-001	1,000000000000000E+000	3,3390962E-002	38	4,5899973E+000	7,563029808941792E+001	3,2562308E-004
2	1	0	1	0	8,203089792772516E+001	4,3082467E-001	4,3015194E-001	7,858100102817076E-001	1,000000000000000E+000	3,4055136E-002	38	4,5899973E+000	7,647999806795269E+001	3,3801771E-004
2	1	0	1	0	8,288069790625741E+001	4,3252423E-001	4,3183047E-001	8,135589624416149E-001	1,000000000000000E+000	3,4742273E-002	38	4,5899973E+000	7,732979804648494E+001	3,5131956E-004
2	1	0	1	0	8,373049788478966E+001	4,3422389E-001	4,3353456E-001	8,421121831332445E-001	1,000000000000000E+000	3,5453547E-002	38	4,5899973E+000	7,817959802501719E+001	3,6508474E-004
2	1	0	1	0	8,458029786332190E+001	4,3592346E-001	4,3523279E-001	8,722358250611482E-001	1,000000000000000E+000	3,6189765E-002	38	4,5899973E+000	7,902939800354943E+001	3,7962562E-004
2	1	0	1	0	8,543009784185415E+001	4,3762305E-001	4,3692344E-001	9,022943124753837E-001	1,000000000000000E+000	3,6951602E-002	38	4,5899973E+000	7,987919798208168E+001	3,9423353E-004
2	1	0	1	0	8,627989782038640E+001	4,3932262E-001	4,3864813E-001	9,320752509993744E-001	1,000000000000000E+000	3,7738923E-002	38	4,5899973E+000	8,072899796061392E+001	4,0885308E-004
2	1	0	1	0	8,712969779891864E+001	4,4102225E-001	4,4032881E-001	9,603739934422184E-001	1,000000000000000E+000	3,8551226E-002	38	4,5899973E+000	8,157879793914617E+001	4,2288034E-004
2	1	0	1	0	8,797949777745089E+001	4,4272181E-001	4,4203526E-001	9,886761855534560E-001	1,000000000000000E+000	3,9387520E-002	38	4,5899973E+000	8,242859791767842E+001	4,3702972E-004
2	1	0	1	0	8,882919775598566E+001	4,4442120E-001	4,4373977E-001	1,012751471206909E+000	1,000000000000000E+000	4,0245969E-002	38	4,5899973E+000	8,327829789621319E+001	4,4939810E-004
2	1	0	1	0	8,967889773452043E+001	4,4612062E-001	4,4544253E-001	1,032343369238314E+000	1,000000000000000E+000	4,1122973E-002	38	4,5899973E+000	8,412799787474796E+001	4,5984963E-004
2	1	0	1	0	9,052869771305268E+001	4,4782022E-001	4,4714412E-001	1,045904182846725E+000	1,000000000000000E+000	4,2014115E-002	38	4,5899973E+000	8,497779785328021E+001	4,6766992E-004
2	1	0	1	0	9,137849769158493E+001	4,4951987E-001	4,4882947E-001	1,050858862630178E+000	1,000000000000000E+000	4,2913016E-002	38	4,5899973E+000	8,582759783181245E+001	4,7165641E-004
2	1	0	1	0	9,222829767011717E+001	4,5121941E-001	4,5053279E-001	1,047094105833476E+000	1,000000000000000E+000	4,3812219E-002	38	4,5899973E+000	8,667739781034470E+001	4,7175025E-004
2	1	0	1	0	9,307809764864942E+001	4,5291904E-001	4,5225656E-001	1,031218523415276E+000	1,000000000000000E+000	4,4702861E-002	38	4,5899973E+000	8,752719778887695E+001	4,6637535E-004
2	1	0	1	0	9,392789762718166E+001	4,5461863E-001	4,5397133E-001	1,001864325292978E+000	1,000000000000000E+000	4,5574307E-002	38	4,5899973E+000	8,837699776740919E+001	4,5481767E-004
2	1	0	1	0	9,477769760571391E+001	4,5631820E-001	4,5567268E-001	9,627996425197747E-001	1,000000000000000E+000	4,6416491E-002	38	4,5899973E+000	8,922679774594144E+001	4,3872150E-004
2	1	0	1	0	9,562749758424616E+001	4,5801783E-001	4,5736745E-001	9,169985614278304E-001	1,000000000000000E+000	4,7222562E-002	38	4,5899973E+000	9,007659772447369E+001	4,1940529E-004
2	1	0	1	0	9,647729756277840E+001	4,5971739E-001	4,5906466E-001	8,657472631695651E-001	1,000000000000000E+000	4,7987133E-002	38	4,5899973E+000	9,092639770300593E+001	3,9743396E-004
2	1	0	1	0	9,732689754131570E+001	4,6141666E-001	4,6075535E-001	8,169062986834525E-001	1,000000000000000E+000	4,8709225E-002	38	4,5899973E+000	9,177599768154323E+001	3,7639396E-004
2	1	0	1	0	9,817669751984795E+001	4,6311623E-001	4,6244663E-001	7,742922448979987E-001	1,000000000000000E+000	4,9392659E-002	38	4,5899973E+000	9,262579766007548E+001	3,5806885E-004
2	1	0	1	0	9,902649749838019E+001	4,6481586E-001	4,6414492E-001	7,387437044768284E-001	1,000000000000000E+000	5,0043110E-002	38	4,5899973E+000	9,347559763860772E+001	3,4288413E-004
2	1	0	1	0	9,987629747691244E+001	4,6651542E-001	4,6584612E-001	7,103246294946484E-001	1,000000000000000E+000	5,0666545E-002	38	4,5899973E+000	9,432539761713997E+001	3,3090197E-004
2	1	0	1	0	1,007260974554447E+002	4,6821505E-001	4,6754134E-001	6,879789637448379E-001	1,000000000000000E+000	5,1268678E-002	38	4,5899973E+000	9,517519759567222E+001	3,2165859E-004
2	1	0	1	0	1,015758974339769E+002	4,6991464E-001	4,6923560E-001	6,701878853535690E-001	1,000000000000000E+000	5,1853843E-002	38	4,5899973E+000	9,602499757420446E+001	3,1447603E-004
2	1	0	1	0	1,024256974125092E+002	4,7161424E-001	4,7094080E-001	6,558826272335097E-001	1,000000000000000E+000	5,2425340E-002	38	4,5899973E+000	9,687479755273671E+001	3,0888189E-004
2	1	0	1	0	1,032754973910414E+002	4,7331384E-001	4,7264066E-001	6,439404214514823E-001	1,000000000000000E+000	5,2985784E-002	38	4,5899973E+000	9,772459753126896E+001	3,0435243E-004
2	1	0	1	0	1,041252973695737E+002	4,7501346E-001	4,7434366E-001	6,331902604038913E-001	1,000000000000000E+000	5,3536855E-002	38	4,5899973E+000	9,857439750980120E+001	3,0034978E-004
2	1	0	1	0	1,049749973481084E+002	4,7671279E-001	4,7605386E-001	6,231524496335430E-001	1,000000000000000E+000	5,4079037E-002	38	4,5899973E+000	9,942409748833597E+001	2,9665412E-004
2	1	0	1	0	1,058246973266432E+002	4,7841224E-001	4,7776526E-001	6,153589384593161E-001	1,000000000000000E+000	5,4613791E-002	38	4,5899973E+000	1,002737974668707E+002	2,9399712E-004
2	1	0	1	0	1,066744973051755E+002	4,8011181E-001	4,7946718E-001	6,063647828259273E-001	1,000000000000000E+000	5,5141520E-002	38	4,5899973E+000	1,011235974454030E+002	2,9073202E-004
2	1	0	1	0	1,075242972837077E+002	4,8181146E-001	4,8116031E-001	5,980753842488489E-001	1,000000000000000E+000	5,5662062E-002	38	4,5899973E+000	1,019733974239352E+002	2,8777015E-004
2	1	0	1	0	1,083740972622400E+002	4,8351106E-001	4,8284596E-001	5,909262165779428E-001	1,000000000000000E+000	5,6176111E-002	38	4,5899973E+000	1,028231974024675E+002	2,8532633E-004
2	1	0	1	0	1,092238972407722E+002	4,8521063E-001	4,8453966E-001	5,830487001388145E-001	1,000000000000000E+000	5,6683745E-002	38	4,5899973E+000	1,036729973809997E+002	2,8251021E-004
2	1	0	1	0	1,100736972193044E+002	4,8691022E-001	4,8625970E-001	5,753690658320401E-001	1,000000000000000E+000	5,7184741E-002	38	4,5899973E+000	1,045227973595320E+002	2,7977879E-004
2	1	0	1	0	1,109234971978367E+002	4,8860979E-001	4,8793769E-001	5,694850760079690E-001	1,000000000000000E+000	5,7680193E-002	38	4,5899973E+000	1,053725973380642E+002	2,7787325E-004
2	1	0	1	0	1,117732971763689E+002	4,9030945E-001	4,8964295E-001	5,635101222265690E-001	1,000000000000000E+000	5,8170713E-002	38	4,5899973E+000	1,062223973165965E+002	2,7591875E-004
2	1	0	1	0	1,126230971549012E+002	4,9200901E-001	4,9134269E-001	5,579067298477796E-001	1,000000000000000E+000	5,8656462E-002	38	4,5899973E+000	1,070721972951287E+002	2,7412339E-004
2	1	0	1	0	1,134726971334385E+002	4,9370825E-001	4,9304038E-001	5,524442163902530E-001	1,000000000000000E+000	5,9137199E-002	38	4,5899973E+000	1,079217972736660E+002	2,7237731E-004
2	1	0	1	0	1,143224971119707E+002	4,9540785E-001	4,9473566E-001	5,470876208475364E-001	1,000000000000000E+000	5,9613541E-002	38	4,5899973E+000	1,087715972521983E+002	2,7066376E-004
2	1	0	1	0	1,151722970905030E+002	4,9710745E-001	4,9641311E-001	5,429648901093644E-001	1,000000000000000E+000	6,0086027E-002	38	4,5899973E+000	1,096213972307305E+002	2,6953488E-004
2	1	0	1	0	1,160220970690352E+002	4,9880701E-001	4,9813506E-001	5,392235698195069E-001	1,000000000000000E+000	6,0555231E-002	38	4,5899973E+000	1,104711972092628E+002	2,6860618E-004
2	1	0	1	0	1,168718970475675E+002	5,0050658E-001	4,9982348E-001	5,368751188750833E-001	1,000000000000000E+000	6,1021861E-002	38	4,5899973E+000	1,113209971877950E+002	2,6834279E-004
2	1	0	1	0	1,177216970260997E+002	5,0220615E-001	5,0151205E-001	5,349772612333736E-001	1,000000000000000E+000	6,1486863E-002	38	4,5899973E+000	1,121707971663272E+002	2,6829753E-004
2	1	0	1	0	1,185714970046320E+002	5,0390577E-001	5,0322986E-001	5,343506195625949E-001	1,000000000000000E+000	6,1950713E-002	38	4,5899973E+000	1,130205971448595E+002	2,6890117E-004
2	1	0	1	0	1,194212969831642E+002	5,0560540E-001	5,0492269E-001	5,343660153437737E-001	1,000000000000000E+000	6,2414356E-002	38	4,5899973E+000	1,138703971233917E+002	2,6981352E-004
2	1	0	1	0	1,202710969616965E+002	5,0730497E-001	5,0660789E-001	5,363973502255330E-001	1,000000000000000E+000	6,2878892E-002	38	4,5899973E+000	1,147201971019240E+002	2,7174313E-004
2	1	0	1	0	1,211207969402312E+002	5,0900435E-001	5,0832623E-001	5,389092389338987E-001	1,000000000000000E+000	6,3345365E-002	38	4,5899973E+000	1,155698970804588E+002	2,7394170E-004
2	1	0	1	0	1,219704969187660E+002	5,1070380E-001	5,1003253E-001	5,426178124158314E-001	1,000000000000000E+000	6,3814543E-002	38	4,5899978E+000	1,164195970589935E+002	2,7675275E-004
2	1	0	1	0	1,228202968972982E+002	5,1240337E-001	5,1173288E-001	5,487041539894042E-001	1,000000000000000E+000	6,4287990E-002	38	4,5899973E+000	1,172693970375258E+002	2,8078994E-004
2	1	0	1	0	1,236700968758305E+002	5,1410300E-001	5,1343089E-001	5,568237456491385E-001	1,000000000000000E+000	6,4767510E-002	38	4,5899973E+000	1,181191970160580E+002	2,8589051E-004
2	1	0	1	0	1,245198968543627E+002	5,1580256E-001	5,1512444E-001	5,676329160339115E-001	1,000000000000000E+000	6,5255284E-002	38	4,5899973E+000	1,189689969945903E+002	2,9240159E-004
2	1	0	1	0	1,253696968328950E+002	5,1750219E-001	5,1683486E-001	5,797955806178283E-001	1,000000000000000E+000	6,5752581E-002	38	4,5899973E+000	1,198187969731225E+002	2,9965857E-004
2	1	0	1	0	1,262194968114272E+002	5,1920176E-001	5,1853305E-001	5,952701603288515E-001	1,000000000000000E+000	6,6261888E-002	38	4,5899973E+000	1,206685969516548E+002	3,0866725E-004
2	1	0	1	0	1,270692967899595E+002	5,2090138E-001	5,2023357E-001	6,137384777606492E-001	1,000000000000000E+000	6,6785417E-002	38	4,5899973E+000	1,215183969301870E+002	3,1928736E-004
2	1	0	1	0	1,279190967684917E+002	5,2260095E-001	5,2193403E-001	6,350139722745443E-001	1,000000000000000E+000	6,7326218E-002	38	4,5899973E+000	1,223681969087193E+002	3,3143541E-004
2	1	0	1	0	1,287686967470290E+002	5,2430016E-001	5,2362382E-001	6,600257109236836E-001	1,000000000000000E+000	6,7886584E-002	38	4,5899973E+000	1,232177968872566E+002	3,4560519E-004
2	1	0	1	0	1,296184967255613E+002	5,2599978E-001	5,2532780E-001	6,993580350313389E-001	1,000000000000000E+000	6,8474591E-002	38	4,5899973E+000	1,240675968657888E+002	3,6739223E-004
2	1	0	1	0	1,304682967040935E+002	5,2769941E-001	5,2705890E-001	7,385910997204945E-001	1,000000000000000E+000	6,9096372E-002	38	4,5899973E+000	1,249173968443210E+002	3,8928102E-004
2	1	0	1	0	1,313180966826258E+002	5,2939898E-001	5,2875346E-001	7,767496548608541E-001	1,000000000000000E+000	6,9750838E-002	38	4,5899973E+000	1,257671968228533E+002	4,1070906E-004
2	1	0	1	0	1,321678966611580E+002	5,3109860E-001	5,3046322E-001	8,223476633662372E-001	1,000000000000000E+000	7,0441023E-002	38	4,5899973E+000	1,266169968013855E+002	4,3622518E-004
2	1	0	1	0	1,330176966396903E+002	5,3279817E-001	5,3215617E-001	8,760300387994020E-001	1,000000000000000E+000	7,1173631E-002	38	4,5899973E+000	1,274667967799178E+002	4,6618478E-004
2	1	0	1	0	1,338674966182225E+002	5,3449774E-001	5,3385645E-001	9,376079602659733E-001	1,000000000000000E+000	7,1955398E-002	38	4,5899973E+000	1,283165967584500E+002	5,0054805E-004
2	1	0	1	0	1,347172965967548E+002	5,3619742E-001	5,3556466E-001	1,007899609778473E+000	1,000000000000000E+000	7,2793581E-002	38	4,5899973E+000	1,291663967369823E+002	5,3979544E-004
2	1	0	1	0	1,355670965752870E+002	5,3789693E-001	5,3725576E-001	1,088228490078262E+000	1,000000000000000E+000	7,3695809E-002	38	4,5899973E+000	1,300161967155145E+002	5,8465701E-004
2	1	0	1	0	1,364167965538218E+002	5,3959638E-001	5,3894371E-001	1,178311475395189E+000	1,000000000000000E+000	7,4670814E-002	38	4,5899973E+000	1,308658966940493E+002	6,3504354E-004
2	1	0	1	0	1,372664965323565E+002	5,4129577E-001	5,4064792E-001	1,282191679264130E+000	1,000000000000000E+000	7,5728327E-002	38	4,5899973E+000	1,317155966725841E+002	6,9321424E-004
2	1	0	1	0	1,381162965108888E+002	5,4299539E-001	5,4234505E-001	1,399606551286151E+000	1,000000000000000E+000	7,6880522E-002	38	4,5899973E+000	1,325653966511163E+002	7,5906969E-004
2	1	0	1	0	1,389660964894210E+002	5,4469496E-001	5,4404545E-001	1,531165678847749E+000	1,000000000000000E+000	7,8138649E-002	38	4,5899973E+000	1,334151966296486E+002	8,3302375E-004
2	1	0	1	0	1,398158964679533E+002	5,4639459E-001	5,4575926E-001	1,680591840298948E+000	1,000000000000000E+000	7,9516701E-002	38	4,5899973E+000	1,342649966081808E+002	9,1719854E-004
2	1	0	1	0	1,406656964464855E+002	5,4809421E-001	5,4743087E-001	1,845413870080765E+000	1,000000000000000E+000	8,1028283E-002	38	4,5899973E+000	1,351147965867131E+002	1,0102366E-003
2	1	0	1	0	1,415154964250178E+002	5,4979378E-001	5,4913521E-001	2,031021182299106E+000	1,000000000000000E+000	8,2689494E-002	38	4,5899973E+000	1,359645965652453E+002	1,1153052E-003
2	1	0	1	0	1,423652964035500E+002	5,5149335E-001	5,5084312E-001	2,235775161351370E+000	1,000000000000000E+000	8,4516592E-002	38	4,5899973E+000	1,368143965437775E+002	1,2315614E-003
2	1	0	1	0	1,432150963820823E+002	5,5319297E-001	5,5255508E-001	2,463217950062225E+000	1,000000000000000E+000	8,6527564E-002	38	4,5899973E+000	1,376641965223098E+002	1,3610636E-003
2	1	0	1	0	1,440648963606145E+002	5,5489254E-001	5,5425966E-001	2,713436117866349E+000	1,000000000000000E+000	8,8742472E-002	38	4,5899973E+000	1,385139965008420E+002	1,5039481E-003
2	1	0	1	0	1,449144963391518E+002	5,5659181E-001	5,5594838E-001	2,989311114936221E+000	1,000000000000000E+000	9,1180548E-002	38	4,5899973E+000	1,393635964793793E+002	1,6619026E-003
2	1	0	1	0	1,457642963176841E+002	5,5829138E-001	5,5763793E-001	3,290265265868143E+000	1,000000000000000E+000	9,3864650E-002	38	4,5899973E+000	1,402133964579116E+002	1,8347767E-003
2	1	0	1	0	1,466140962962163E+002	5,5999094E-001	5,5934083E-001	3,615847424693861E+000	1,000000000000000E+000	9,6815616E-002	38	4,5899973E+000	1,410631964364438E+002	2,0224911E-003
2	1	0	1	0	1,474638962747485E+002	5,6169057E-001	5,6103551E-001	3,970022290683971E+000	1,000000000000000E+000	1,0005528E-001	38	4,5899973E+000	1,419129964149761E+002	2,2273236E-003
2	1	0	1	0	1,483136962532808E+002	5,6339020E-001	5,6270868E-001	4,351542621429971E+000	1,000000000000000E+000	1,0360868E-001	38	4,5899973E+000	1,427627963935083E+002	2,4486508E-003
2	1	0	1	0	1,491634962318130E+002	5,6508976E-001	5,6441808E-001	4,759937311630233E+000	1,000000000000000E+000	1,0749760E-001	38	4,5899973E+000	1,436125963720406E+002	2,6865946E-003
2	1	0	1	0	1,500132962103453E+002	5,6678933E-001	5,6612307E-001	5,208855866199883E+000	1,000000000000000E+000	1,1175163E-001	38	4,5899973E+000	1,444623963505728E+002	2,9488534E-003
2	1	0	1	0	1,508630961888775E+002	5,6848896E-001	5,6782335E-001	5,678974580331595E+000	1,000000000000000E+000	1,1639669E-001	38	4,5899973E+000	1,453121963291051E+002	3,2246544E-003
2	1	0	1	0	1,517127961674123E+002	5,7018834E-001	5,6952691E-001	6,187742749175893E+000	1,000000000000000E+000	1,2145744E-001	38	4,5899973E+000	1,461618963076398E+002	3,5240860E-003
2	1	0	1	0	1,525625961459446E+002	5,7188797E-001	5,7122803E-001	6,747257320941664E+000	1,000000000000000E+000	1,2697321E-001	38	4,5899978E+000	1,470116962861721E+002	3,8542226E-003
2	1	0	1	0	1,534122961244793E+002	5,7358736E-001	5,7291931E-001	7,300603112561845E+000	1,000000000000000E+000	1,3296202E-001	38	4,5899973E+000	1,478613962647069E+002	4,1826563E-003
2	1	0	1	0	1,542620961030116E+002	5,7528692E-001	5,7464558E-001	7,887814298409495E+000	1,000000000000000E+000	1,3943599E-001	38	4,5899978E+000	1,487111962432391E+002	4,5326976E-003
2	1	0	1	0	1,551118960815438E+002	5,7698655E-001	5,7634556E-001	8,557034638460479E+000	1,000000000000000E+000	1,4644465E-001	38	4,5899973E+000	1,495609962217713E+002	4,9318089E-003
2	1	0	1	0	1,559616960600761E+002	5,7868618E-001	5,7802802E-001	9,277543803367678E+000	1,000000000000000E+000	1,5404415E-001	38	4,5899973E+000	1,504107962003036E+002	5,3626802E-003
2	1	0	1	0	1,568114960386083E+002	5,8038574E-001	5,7972836E-001	9,915646771046369E+000	1,000000000000000E+000	1,6222265E-001	38	4,5899973E+000	1,512605961788358E+002	5,7483818E-003
2	1	0	1	0	1,576612960171406E+002	5,8208531E-001	5,8143908E-001	1,059829112376053E+001	1,000000000000000E+000	1,7096108E-001	38	4,5899973E+000	1,521103961573681E+002	6,1622607E-003
2	1	0	1	0	1,585110959956728E+002	5,8378500E-001	5,8312261E-001	1,146009414272999E+001	1,000000000000000E+000	1,8035650E-001	38	4,5899973E+000	1,529601961359003E+002	6,6826399E-003
2	1	0	1	0	1,593608959742051E+002	5,8548456E-001	5,8482999E-001	1,230327435557550E+001	1,000000000000000E+000	1,9047825E-001	38	4,5899973E+000	1,538099961144326E+002	7,1953237E-003
2	1	0	1	0	1,602105959527398E+002	5,8718407E-001	5,8652335E-001	1,317820800873869E+001	1,000000000000000E+000	2,0133220E-001	38	4,5899982E+000	1,546596960929674E+002	7,7293268E-003
2	1	0	1	0	1,610602959312746E+002	5,8888328E-001	5,8822858E-001	1,392776488526851E+001	1,000000000000000E+000	2,1287434E-001	38	4,5899973E+000	1,555093960715021E+002	8,1927096E-003
2	1	0	1	0	1,619100959098068E+002	5,9058297E-001	5,8992827E-001	1,494809659903814E+001	1,000000000000000E+000	2,2516297E-001	38	4,5899973E+000	1,563591960500344E+002	8,8183051E-003
2	1	0	1	0	1,627598958883391E+002	5,9228253E-001	5,9161246E-001	1,572459165011060E+001	1,000000000000000E+000	2,3822361E-001	38	4,5899978E+000	1,572089960285666E+002	9,3028648E-003
2	1	0	1	0	1,636096958668713E+002	5,9398216E-001	5,9330887E-001	1,666076417974648E+001	1,000000000000000E+000	2,5201562E-001	38	4,5899973E+000	1,580587960070989E+002	9,8849786E-003
2	1	0	1	0	1,644594958454036E+002	5,9568179E-001	5,9500307E-001	1,765639730779665E+001	1,000000000000000E+000	2,6661909E-001	38	4,5899973E+000	1,589085959856311E+002	1,0505610E-002
2	1	0	1	0	1,653092958239358E+002	5,9738135E-001	5,9669876E-001	1,844831239662477E+001	1,000000000000000E+000	2,8198531E-001	38	4,5899973E+000	1,597583959641634E+002	1,1008085E-002
2	1	0	1	0	1,661590958024681E+002	5,9908092E-001	5,9840131E-001	1,921191730037776E+001	1,000000000000000E+000	2,9801080E-001	38	4,5899973E+000	1,606081959426956E+002	1,1496437E-002
2	1	0	1	0	1,670088957810003E+002	6,0078061E-001	6,0010105E-001	2,025774382264467E+001	1,000000000000000E+000	3,1481525E-001	38	4,5899973E+000	1,614579959212278E+002	1,2156693E-002
2	1	0	1	0	1,678584957595376E+002	6,0247976E-001	6,0178745E-001	2,171889419402879E+001	1,000000000000000E+000	3,3270699E-001	38	4,5899973E+000	1,623075958997651E+002	1,3070158E-002
2	1	0	1	0	1,687082957380699E+002	6,0417944E-001	6,0349423E-001	2,246320125060331E+001	1,000000000000000E+000	3,5150099E-001	38	4,5899973E+000	1,631573958782974E+002	1,3556412E-002
2	1	0	1	0	1,695580957166021E+002	6,0587901E-001	6,0519338E-001	2,326148640650825E+001	1,000000000000000E+000	3,7095723E-001	38	4,5899973E+000	1,640071958568296E+002	1,4077698E-002
2	1	0	1	0	1,704078956951344E+002	6,0757858E-001	6,0688192E-001	2,542596175867425E+001	1,000000000000000E+000	3,9168081E-001	38	4,5899973E+000	1,648569958353619E+002	1,5430557E-002
2	1	0	1	0	1,712576956736666E+002	6,0927814E-001	6,0859543E-001	2,593986958275616E+001	1,000000000000000E+000	4,1353872E-001	38	4,5899973E+000	1,657067958138941E+002	1,5786886E-002
2	1	0	1	0	1,721074956521989E+002	6,1097777E-001	6,1029303E-001	2,741088027438195E+001	1,000000000000000E+000	4,3622434E-001	38	4,5899973E+000	1,665565957924264E+002	1,6728669E-002
2	1	0	1	0	1,729572956307311E+002	6,1267734E-001	6,1197394E-001	2,860213598261430E+001	1,000000000000000E+000	4,6008843E-001	38	4,5899973E+000	1,674063957709586E+002	1,7503763E-002
2	1	0	1	0	1,738070956092633E+002	6,1437696E-001	6,1367428E-001	2,901807493010051E+001	1,000000000000000E+000	4,8458734E-001	38	4,5899973E+000	1,682561957494909E+002	1,7807646E-002
2	1	0	1	0	1,746568955877956E+002	6,1607659E-001	6,1537153E-001	3,045748771621317E+001	1,000000000000000E+000	5,0991958E-001	38	4,5899973E+000	1,691059957280231E+002	1,8742671E-002
2	1	0	1	0	1,755065955663304E+002	6,1777592E-001	6,1708122E-001	3,126184602350770E+001	1,000000000000000E+000	5,3617811E-001	38	4,5899973E+000	1,699556957065579E+002	1,9291099E-002
2	1	0	1	0	1,763562955448651E+002	6,1947536E-001	6,1877602E-001	3,235334399768524E+001	1,000000000000000E+000	5,6321460E-001	38	4,5899973E+000	1,708053956850927E+002	2,0019474E-002
2	1	0	1	0	1,772060955233974E+002	6,2117499E-001	6,2048936E-001	3,348778512740805E+001	1,000000000000000E+000	5,9124792E-001	38	4,5899973E+000	1,716551956636249E+002	2,0778814E-002
2	1	0	1	0	1,780558955019296E+002	6,2287456E-001	6,2218767E-001	3,560943535372496E+001	1,000000000000000E+000	6,2065738E-001	38	4,5899973E+000	1,725049956421572E+002	2,2155752E-002
2	1	0	1	0	1,789056954804619E+002	6,2457412E-001	6,2388283E-001	3,667411323237229E+001	1,000000000000000E+000	6,5141916E-001	38	4,5899973E+000	1,733547956206894E+002	2,2880349E-002
2	1	0	1	0	1,797054954602572E+002	6,2617379E-001	6,2551284E-001	3,840864306375875E+001	1,000000000000000E+000	6,8141580E-001	38	4,5899978E+000	1,741545956004848E+002	2,4025099E-002
2	1	0	0	0	1,801059954501397E+002	6,2697387E-001	6,2630206E-001	3,854674877787744E+001	1,000000000000000E+000	6,9682521E-001	38	4,5899997E+000	1,745550955903673E+002	2,4141908E-002
2	1	0	1	0	1,805558954387743E+002	6,2607372E-001	6,2540549E-001	3,804346458037811E+001	1,000000000000000E+000	7,1394992E-001	38	4,5899973E+000	1,750049955790018E+002	2,3792591E-002
2	1	0	1	0	1,814056954173066E+002	6,2437409E-001	6,2371105E-001	3,635797794883678E+001	1,000000000000000E+000	7,4556327E-001	38	4,5899973E+000	1,758547955575341E+002	2,2676872E-002
2	1	0	1	0	1,822554953958388E+002	6,2267452E-001	6,2198496E-001	3,677928131249382E+001	1,000000000000000E+000	7,7667570E-001	38	4,5899973E+000	1,767045955360663E+002	2,2876160E-002
2	1	0	1	0	1,831051953743736E+002	6,2097514E-001	6,2030196E-001	3,415042855280623E+001	1,000000000000000E+000	8,0674487E-001	38	4,5899973E+000	1,775542955146011E+002	2,1183578E-002
2	1	0	1	0	1,839548953529084E+002	6,1927575E-001	6,1859697E-001	3,229975851250748E+001	1,000000000000000E+000	8,3494103E-001	38	4,5899973E+000	1,784039954931359E+002	1,9980533E-002
2	1	0	1	0	1,848046953314406E+002	6,1757612E-001	6,1688977E-001	3,223500518075923E+001	1,000000000000000E+000	8,6239398E-001	38	4,5899973E+000	1,792537954716681E+002	1,9885445E-002
2	1	0	1	0	1,856544953099728E+002	6,1587650E-001	6,1518323E-001	3,114122164947563E+001	1,000000000000000E+000	8,8928252E-001	38	4,5899973E+000	1,801035954502004E+002	1,9157557E-002
2	1	0	1	0	1,865042952885051E+002	6,1417693E-001	6,1347640E-001	3,032189486918003E+001	1,000000000000000E+000	9,1542339E-001	38	4,5899973E+000	1,809533954287326E+002	1,8601766E-002
2	1	0	1	0	1,873540952670373E+002	6,1247736E-001	6,1177844E-001	2,926589117534400E+001	1,000000000000000E+000	9,4070154E-001	38	4,5899973E+000	1,818031954072649E+002	1,7904241E-002
2	1	0	1	0	1,882038952455696E+002	6,1077774E-001	6,1007339E-001	2,779180848549919E+001	1,000000000000000E+000	9,6495324E-001	38	4,5899973E+000	1,826529953857971E+002	1,6955042E-002
2	1	0	1	0	1,890536952241018E+002	6,0907811E-001	6,0837531E-001	2,746265501497498E+001	1,000000000000000E+000	9,8845714E-001	38	4,5899973E+000	1,835027953643294E+002	1,6707601E-002
2	1	0	1	0	1,899034952026341E+002	6,0737854E-001	6,0669363E-001	2,535000993379670E+001	1,000000000000000E+000	1,0108347E+000	38	4,5899973E+000	1,843525953428616E+002	1,5379690E-002
2	1	0	1	0	1,907532951811663E+002	6,0567898E-001	6,0498661E-001	2,378936724047568E+001	1,000000000000000E+000	1,0316710E+000	38	4,5899973E+000	1,852023953213939E+002	1,4392248E-002
2	1	0	1	0	1,916028951597036E+002	6,0397977E-001	6,0328609E-001	2,301510904719919E+001	1,000000000000000E+000	1,0515203E+000	38	4,5899973E+000	1,860519952999312E+002	1,3884695E-002
2	1	0	1	0	1,924526951382359E+002	6,0228014E-001	6,0158157E-001	2,299601837803613E+001	1,000000000000000E+000	1,0710148E+000	38	4,5899973E+000	1,869017952784634E+002	1,3833981E-002
2	1	0	1	0	1,933024951167681E+002	6,0058051E-001	5,9987444E-001	2,132278504388245E+001	1,000000000000000E+000	1,0898204E+000	38	4,5899973E+000	1,877515952569956E+002	1,2790994E-002
2	1	0	1	0	1,941522950953004E+002	5,9888095E-001	5,9820801E-001	2,021677745577685E+001	1,000000000000000E+000	1,1074262E+000	38	4,5899973E+000	1,886013952355279E+002	1,2093838E-002
2	1	0	1	0	1,950020950738326E+002	5,9718132E-001	5,9649664E-001	1,947254235698455E+001	1,000000000000000E+000	1,1242641E+000	38	4,5899973E+000	1,894511952140601E+002	1,1615306E-002
2	1	0	1	0	1,958518950523649E+002	5,9548175E-001	5,9481621E-001	1,817286535827478E+001	1,000000000000000E+000	1,1402267E+000	38	4,5899973E+000	1,903009951925924E+002	1,0809515E-002
2	1	0	1	0	1,967016950308971E+002	5,9378213E-001	5,9311259E-001	1,707577720932044E+001	1,000000000000000E+000	1,1551759E+000	38	4,5899973E+000	1,911507951711246E+002	1,0127858E-002
2	1	0	1	0	1,975514950094293E+002	5,9208256E-001	5,9140456E-001	1,615013728319531E+001	1,000000000000000E+000	1,1692660E+000	38	4,5899973E+000	1,920005951496569E+002	9,5512643E-003
2	1	0	1	0	1,984011949879641E+002	5,9038311E-001	5,8972919E-001	1,567649803448660E+001	1,000000000000000E+000	1,1827686E+000	38	4,5899973E+000	1,928502951281916E+002	9,2448881E-003
2	1	0	1	0	1,992508949664989E+002	5,8868372E-001	5,8801371E-001	1,494328523035236E+001	1,000000000000000E+000	1,1957715E+000	38	4,5899978E+000	1,936999951067264E+002	8,7868562E-003
2	1	0	1	0	2,001006949450311E+002	5,8698416E-001	5,8633399E-001	1,380916386335971E+001	1,000000000000000E+000	1,2079548E+000	38	4,5899973E+000	1,945497950852587E+002	8,0967825E-003
2	1	0	1	0	2,009504949235634E+002	5,8528459E-001	5,8462667E-001	1,350180569540862E+001	1,000000000000000E+000	1,2195201E+000	38	4,5899978E+000	1,953995950637909E+002	7,8935158E-003
2	1	0	1	0	2,018002949020956E+002	5,8358496E-001	5,8291399E-001	1,239974504544722E+001	1,000000000000000E+000	1,2305021E+000	38	4,5899973E+000	1,962493950423232E+002	7,2279847E-003
2	1	0	1	0	2,026500948806279E+002	5,8188534E-001	5,8122194E-001	1,148653202756546E+001	1,000000000000000E+000	1,2406228E+000	38	4,5899973E+000	1,970991950208554E+002	6,6762245E-003
2	1	0	1	0	2,034998948591601E+002	5,8018577E-001	5,7953286E-001	1,074599535794682E+001	1,000000000000000E+000	1,2500501E+000	38	4,5899973E+000	1,979489949993877E+002	6,2276577E-003
2	1	0	1	0	2,043496948376924E+002	5,7848614E-001	5,7782197E-001	1,035385654277533E+001	1,000000000000000E+000	1,2590108E+000	38	4,5899973E+000	1,987987949779199E+002	5,9826858E-003
2	1	0	1	0	2,051994948162246E+002	5,7678652E-001	5,7611680E-001	9,504088135598806E+000	1,000000000000000E+000	1,2674203E+000	38	4,5899973E+000	1,996485949564521E+002	5,4754647E-003
2	1	0	1	0	2,060492947947569E+002	5,7508695E-001	5,7444865E-001	8,760618875700033E+000	1,000000000000000E+000	1,2751567E+000	38	4,5899973E+000	2,004983949349844E+002	5,0325259E-003
2	1	0	1	0	2,068989947732916E+002	5,7338762E-001	5,7273722E-001	8,125895739597297E+000	1,000000000000000E+000	1,2823097E+000	38	4,5899982E+000	2,013480949135192E+002	4,6540028E-003
2	1	0	1	0	2,077486947518264E+002	5,7168812E-001	5,7102638E-001	7,492559690356757E+000	1,000000000000000E+000	1,2889235E+000	38	4,5899978E+000	2,021977948920539E+002	4,2784493E-003
2	1	0	1	0	2,085984947303587E+002	5,6998849E-001	5,6933039E-001	6,935037372882789E+000	1,000000000000000E+000	1,2950326E+000	38	4,5899973E+000	2,030475948705862E+002	3,9483276E-003
2	1	0	1	0	2,094482947088909E+002	5,6828892E-001	5,6763411E-001	6,455990034394318E+000	1,000000000000000E+000	1,3007059E+000	38	4,5899978E+000	2,038973948491184E+002	3,6646402E-003
2	1	0	1	0	2,102980946874231E+002	5,6658930E-001	5,6592888E-001	5,937671488756180E+000	1,000000000000000E+000	1,3059508E+000	38	4,5899973E+000	2,047471948276507E+002	3,3602999E-003
2	1	0	1	0	2,111478946659554E+002	5,6488973E-001	5,6421924E-001	5,457337644442887E+000	1,000000000000000E+000	1,3107742E+000	38	4,5899973E+000	2,055969948061829E+002	3,0791350E-003
2	1	0	1	0	2,119976946444876E+002	5,6319016E-001	5,6253231E-001	4,970391880554388E+000	1,000000000000000E+000	1,3151857E+000	38	4,5899973E+000	2,064467947847152E+002	2,7960059E-003
2	1	0	1	0	2,128474946230199E+002	5,6149054E-001	5,6083709E-001	4,528450456499250E+000	1,000000000000000E+000	1,3192034E+000	38	4,5899973E+000	2,072965947632474E+002	2,5397229E-003
2	1	0	1	0	2,136972946015521E+002	5,5979097E-001	5,5914980E-001	4,122048304398533E+000	1,000000000000000E+000	1,3228624E+000	38	4,5899973E+000	2,081463947417797E+002	2,3048425E-003
2	1	0	1	0	2,145468945800894E+002	5,5809176E-001	5,5744135E-001	3,741293939273387E+000	1,000000000000000E+000	1,3261857E+000	38	4,5899973E+000	2,089959947203170E+002	2,0855519E-003
2	1	0	1	0	2,153966945586217E+002	5,5639213E-001	5,5574501E-001	3,392474199604097E+000	1,000000000000000E+000	1,3292010E+000	38	4,5899973E+000	2,098457946988492E+002	1,8853506E-003
2	1	0	1	0	2,162464945371539E+002	5,5469251E-001	5,5404192E-001	3,074695460465065E+000	1,000000000000000E+000	1,3319335E+000	38	4,5899973E+000	2,106955946773815E+002	1,7035102E-003
2	1	0	1	0	2,170962945156862E+002	5,5299294E-001	5,5233592E-001	2,777055694108430E+000	1,000000000000000E+000	1,3344054E+000	38	4,5899973E+000	2,115453946559137E+002	1,5338676E-003
2	1	0	1	0	2,179460944942184E+002	5,5129331E-001	5,5062860E-001	2,506435028260128E+000	1,000000000000000E+000	1,3366362E+000	38	4,5899973E+000	2,123951946344459E+002	1,3801148E-003
2	1	0	1	0	2,187958944727507E+002	5,4959375E-001	5,4893291E-001	2,256794890638435E+000	1,000000000000000E+000	1,3386467E+000	38	4,5899973E+000	2,132449946129782E+002	1,2388290E-003
2	1	0	1	0	2,196456944512829E+002	5,4789418E-001	5,4720688E-001	2,025607398389425E+000	1,000000000000000E+000	1,3404529E+000	38	4,5899973E+000	2,140947945915104E+002	1,1084263E-003
2	1	0	1	0	2,204954944298152E+002	5,4619449E-001	5,4553056E-001	1,813852757121694E+000	1,000000000000000E+000	1,3420713E+000	38	4,5899973E+000	2,149445945700427E+002	9,8951207E-004
2	1	0	1	0	2,213452944083474E+002	5,4449493E-001	5,4381645E-001	1,625086019540820E+000	1,000000000000000E+000	1,3435203E+000	38	4,5899973E+000	2,157943945485749E+002	8,8374852E-004
2	1	0	1	0	2,221949943868822E+002	5,4279548E-001	5,4211432E-001	1,457729248047334E+000	1,000000000000000E+000	1,3448176E+000	38	4,5899973E+000	2,166440945271097E+002	7,9025590E-004
2	1	0	1	0	2,230446943654169E+002	5,4109615E-001	5,4041857E-001	1,302266565053923E+000	1,000000000000000E+000	1,3459784E+000	38	4,5899973E+000	2,174937945056445E+002	7,0376904E-004
2	1	0	1	0	2,238944943439492E+002	5,3939652E-001	5,3871727E-001	1,159883351285368E+000	1,000000000000000E+000	1,3470124E+000	38	4,5899973E+000	2,183435944841767E+002	6,2484917E-004
2	1	0	1	0	2,247442943224814E+002	5,3769696E-001	5,3702986E-001	1,032168289474207E+000	1,000000000000000E+000	1,3479323E+000	38	4,5899973E+000	2,191933944627090E+002	5,5430521E-004
2	1	0	1	0	2,255940943010137E+002	5,3599733E-001	5,3532904E-001	9,151621178230229E-001	1,000000000000000E+000	1,3487484E+000	38	4,5899973E+000	2,200431944412412E+002	4,8991287E-004
2	1	0	1	0	2,264438942795459E+002	5,3429776E-001	5,3363806E-001	8,153829721883241E-001	1,000000000000000E+000	1,3494724E+000	38	4,5899973E+000	2,208929944197735E+002	4,3511938E-004
2	1	0	1	0	2,272936942580782E+002	5,3259814E-001	5,3193045E-001	7,219864472488151E-001	1,000000000000000E+000	1,3501145E+000	38	4,5899973E+000	2,217427943983057E+002	3,8404658E-004
2	1	0	1	0	2,281434942366104E+002	5,3089851E-001	5,3022462E-001	6,387863165845912E-001	1,000000000000000E+000	1,3506815E+000	38	4,5899973E+000	2,225925943768380E+002	3,3870022E-004
2	1	0	1	0	2,289932942151427E+002	5,2919894E-001	5,2853477E-001	5,649053019793602E-001	1,000000000000000E+000	1,3511822E+000	38	4,5899973E+000	2,234423943553702E+002	2,9857209E-004
2	1	0	1	0	2,298430941936749E+002	5,2749938E-001	5,2682149E-001	4,980547971562785E-001	1,000000000000000E+000	1,3516231E+000	38	4,5899973E+000	2,242921943339024E+002	2,6238596E-004
2	1	0	1	0	2,306926941722122E+002	5,2580011E-001	5,2511239E-001	4,398016891649594E-001	1,000000000000000E+000	1,3520108E+000	38	4,5899973E+000	2,251417943124397E+002	2,3094531E-004
2	1	0	1	0	2,315424941507445E+002	5,2410054E-001	5,2341658E-001	3,872110289812780E-001	1,000000000000000E+000	1,3523517E+000	38	4,5899973E+000	2,259915942909720E+002	2,0267267E-004
2	1	0	1	0	2,323922941292767E+002	5,2240098E-001	5,2172029E-001	3,413136518065363E-001	1,000000000000000E+000	1,3526510E+000	38	4,5899973E+000	2,268413942695042E+002	1,7807026E-004
2	1	0	1	0	2,332420941078090E+002	5,2070141E-001	5,2001077E-001	3,001309656583233E-001	1,000000000000000E+000	1,3529134E+000	38	4,5899973E+000	2,276911942480365E+002	1,5607133E-004
2	1	0	1	0	2,340918940863412E+002	5,1900172E-001	5,1831275E-001	2,642719372786591E-001	1,000000000000000E+000	1,3531432E+000	38	4,5899973E+000	2,285409942265687E+002	1,3697552E-004
2	1	0	1	0	2,349416940648734E+002	5,1730216E-001	5,1661855E-001	2,317578059891202E-001	1,000000000000000E+000	1,3533440E+000	38	4,5899973E+000	2,293907942051010E+002	1,1973038E-004
2	1	0	1	0	2,357914940434057E+002	5,1560259E-001	5,1491225E-001	2,033468054900927E-001	1,000000000000000E+000	1,3535190E+000	38	4,5899973E+000	2,302405941836332E+002	1,0470576E-004
2	1	0	1	0	2,366412940219379E+002	5,1390296E-001	5,1321059E-001	1,787329830102875E-001	1,000000000000000E+000	1,3536717E+000	38	4,5899973E+000	2,310903941621655E+002	9,1727663E-005
2	1	0	1	0	2,374909940004727E+002	5,1220357E-001	5,1150644E-001	1,577686260880715E-001	1,000000000000000E+000	1,3538053E+000	38	4,5899973E+000	2,319400941407002E+002	8,0699669E-005
2	1	0	1	0	2,383407939790050E+002	5,1050395E-001	5,0980628E-001	1,383410884045833E-001	1,000000000000000E+000	1,3539218E+000	38	4,5899973E+000	2,327898941192325E+002	7,0527152E-005
2	1	0	1	0	2,391904939575397E+002	5,0880456E-001	5,0808853E-001	1,201380482568287E-001	1,000000000000000E+000	1,3540223E+000	38	4,5899973E+000	2,336395940977673E+002	6,1040766E-005
2	1	0	1	0	2,400402939360720E+002	5,0710493E-001	5,0639063E-001	1,053218212548925E-001	1,000000000000000E+000	1,3541087E+000	38	4,5899978E+000	2,344893940762995E+002	5,3333984E-005
2	1	0	1	0	2,408900939146042E+002	5,0540537E-001	5,0469375E-001	9,145854086086080E-002	1,000000000000000E+000	1,3541830E+000	38	4,5899973E+000	2,353391940548318E+002	4,6158555E-005
2	1	0	1	0	2,417398938931365E+002	5,0370574E-001	5,0300658E-001	7,908196641338350E-002	1,000000000000000E+000	1,3542461E+000	38	4,5899973E+000	2,361889940333640E+002	3,9778748E-005
2	1	0	1	0	2,425896938716687E+002	5,0200617E-001	5,0129199E-001	6,876076578128243E-002	1,000000000000000E+000	1,3542999E+000	38	4,5899973E+000	2,370387940118962E+002	3,4469220E-005
2	1	0	1	0	2,434394938502010E+002	5,0030655E-001	4,9960977E-001	5,919431127479040E-002	1,000000000000000E+000	1,3543451E+000	38	4,5899973E+000	2,378885939904285E+002	2,9574056E-005
2	1	0	1	0	2,442892938287332E+002	4,9860707E-001	4,9791113E-001	5,096498145770953E-002	1,000000000000000E+000	1,3543828E+000	38	4,5899973E+000	2,387383939689607E+002	2,5376032E-005
2	1	0	1	0	2,451390938072655E+002	4,9690738E-001	4,9621263E-001	4,323845337003619E-002	1,000000000000000E+000	1,3544136E+000	38	4,5899973E+000	2,395881939474930E+002	2,1455468E-005
2	1	0	1	0	2,459888937857977E+002	4,9520782E-001	4,9451748E-001	3,530608907935515E-002	1,000000000000000E+000	1,3544379E+000	38	4,5899973E+000	2,404379939260252E+002	1,7459479E-005
2	1	0	1	0	2,468384937643350E+002	4,9350858E-001	4,9280408E-001	2,931750246150222E-002	1,000000000000000E+000	1,3544564E+000	38	4,5899973E+000	2,412875939045625E+002	1,4447784E-005
2	1	0	1	0	2,476882937428672E+002	4,9180898E-001	4,9110898E-001	2,302882907032222E-002	1,000000000000000E+000	1,3544698E+000	38	4,5899973E+000	2,421373938830948E+002	1,1309665E-005
2	1	0	1	0	2,485380937213995E+002	4,9010941E-001	4,8941210E-001	1,778380172358685E-002	1,000000000000000E+000	1,3544780E+000	38	4,5899973E+000	2,429871938616270E+002	8,7036078E-006
2	1	0	1	0	2,493878936999317E+002	4,8840979E-001	4,8770326E-001	1,308318830765859E-002	1,000000000000000E+000	1,3544821E+000	38	4,5899973E+000	2,438369938401593E+002	6,3807138E-006
2	1	0	1	0	2,502376936784640E+002	4,8671022E-001	4,8601139E-001	8,579047261768100E-003	1,000000000000000E+000	1,3544822E+000	38	4,5899973E+000	2,446867938186915E+002	4,1695148E-006
2	1	0	1	0	2,510874936569962E+002	4,8501059E-001	4,8431936E-001	3,693334280838165E-003	1,000000000000000E+000	1,3544785E+000	38	4,5899973E+000	0,000000000000000E+000	1,7887533E-006
2	1	0	1	0	2,519372936355285E+002	4,8331100E-001	4,8262921E-001	-7,647634304080060E-004	1,000000000000000E+000	1,3544707E+000	38	4,5899973E+000	8,497999785322463E-001	-3,6909717E-007
2	1	0	1	0	2,527870936140607E+002	4,8161143E-001	4,8092714E-001	-4,477709174545014E-003	1,000000000000000E+000	1,3544596E+000	38	4,5899973E+000	1,699599957064493E+000	-2,1534518E-006
2	1	0	1	0	2,536368935925930E+002	4,7991180E-001	4,7921178E-001	-8,598009846311941E-003	1,000000000000000E+000	1,3544451E+000	38	4,5899973E+000	2,549399935596739E+000	-4,1202675E-006
2	1	0	1	0	2,544864935711303E+002	4,7821259E-001	4,7751912E-001	-1,235316409897856E-002	1,000000000000000E+000	1,3544272E+000	38	4,5899973E+000	3,398999914134038E+000	-5,8988721E-006
2	1	0	1	0	2,553362935496625E+002	4,7651300E-001	4,7581369E-001	-1,653127428810053E-002	1,000000000000000E+000	1,3544060E+000	38	4,5899973E+000	4,248799892666284E+000	-7,8658068E-006
2	1	0	1	0	2,561860935281948E+002	4,7481340E-001	4,7411305E-001	-1,906943151675086E-002	1,000000000000000E+000	1,3543820E+000	38	4,5899973E+000	5,098599871198530E+000	-9,0410667E-006
2	0	0	1	0	2,570358935067270E+002	4,7311383E-001	4,7243220E-001	-2,301983630648208E-002	1,000000000000000E+000	1,3543552E+000	38	4,5899973E+000	5,948399849730777E+000	-1,0875312E-005
2	1	0	1	0	2,578856934852593E+002	4,7141421E-001	4,7072035E-001	-2,634761457150442E-002	1,000000000000000E+000	1,3543252E+000	38	4,5899973E+000	6,798199828263023E+000	-1,2402358E-005
2	0	0	1	0	2,587354934637915E+002	4,6971461E-001	4,6901795E-001	-2,996113714607472E-002	1,000000000000000E+000	1,3542922E+000	38	4,5899973E+000	7,647999806795269E+000	-1,4052312E-005
2	0	0	1	0	2,595852934423237E+002	4,6801502E-001	4,6731400E-001	-3,364605126081466E-002	1,000000000000000E+000	1,3542563E+000	38	4,5899973E+000	8,497799785327516E+000	-1,5723272E-005
2	0	0	1	0	2,604350934208560E+002	4,6631545E-001	4,6563646E-001	-3,719312793253982E-002	1,000000000000000E+000	1,3542171E+000	38	4,5899973E+000	9,347599763859762E+000	-1,7318476E-005
2	0	0	1	0	2,612848933993882E+002	4,6461579E-001	4,6393368E-001	-4,079612868905491E-002	1,000000000000000E+000	1,3541747E+000	38	4,5899973E+000	1,019739974239201E+001	-1,8926698E-005
2	0	0	1	0	2,621344933779255E+002	4,6291661E-001	4,6222743E-001	-4,505863928140341E-002	1,000000000000000E+000	1,3541291E+000	38	4,5899973E+000	1,104699972092931E+001	-2,0827340E-005
2	0	0	1	0	2,629842933564578E+002	4,6121696E-001	4,6054760E-001	-4,893110954563062E-002	1,000000000000000E+000	1,3540800E+000	38	4,5899973E+000	1,189679969946155E+001	-2,2535105E-005
2	0	0	1	0	2,638340933349900E+002	4,5951736E-001	4,5883748E-001	-5,304057801369511E-002	1,000000000000000E+000	1,3540273E+000	38	4,5899973E+000	1,274659967799380E+001	-2,4337005E-005
2	0	0	1	0	2,646838933135223E+002	4,5781782E-001	4,5715618E-001	-5,715661002476968E-002	1,000000000000000E+000	1,3539711E+000	38	4,5899973E+000	1,359639965652605E+001	-2,6129497E-005
2	0	0	1	0	2,655336932920545E+002	4,5611817E-001	4,5545176E-001	-6,186930414580200E-002	1,000000000000000E+000	1,3539113E+000	38	4,5899973E+000	1,444619963505829E+001	-2,8178483E-005
2	0	0	1	0	2,663834932705868E+002	4,5441863E-001	4,5374680E-001	-6,715753813158265E-002	1,000000000000000E+000	1,3538474E+000	38	4,5899973E+000	1,529599961359054E+001	-3,0472518E-005
2	0	0	1	0	2,672332932491190E+002	4,5271903E-001	4,5204678E-001	-7,218224396301809E-002	1,000000000000000E+000	1,3537791E+000	38	4,5899973E+000	1,614579959212278E+001	-3,2629752E-005
2	0	0	1	0	2,680830932276513E+002	4,5101941E-001	4,5033920E-001	-7,703024355933530E-002	1,000000000000000E+000	1,3537067E+000	38	4,5899973E+000	1,699559957065503E+001	-3,4689740E-005
2	0	0	1	0	2,689328932061835E+002	4,4931984E-001	4,4864973E-001	-8,205961000571360E-002	1,000000000000000E+000	1,3536298E+000	38	4,5899973E+000	1,784539954918728E+001	-3,6816022E-005
2	0	0	1	0	2,697824931847208E+002	4,4762057E-001	4,4695330E-001	-8,853859600597080E-002	1,000000000000000E+000	1,3535484E+000	38	4,5899973E+000	1,869499952772458E+001	-3,9572617E-005
2	0	0	1	0	2,706322931632531E+002	4,4592097E-001	4,4524300E-001	-9,470831372248911E-002	1,000000000000000E+000	1,3534615E+000	38	4,5899973E+000	1,954479950625682E+001	-4,2168213E-005
2	0	0	1	0	2,714820931417853E+002	4,4422144E-001	4,4353598E-001	-1,006359227269158E-001	1,000000000000000E+000	1,3533697E+000	38	4,5899973E+000	2,039459948478907E+001	-4,4635653E-005
2	0	0	1	0	2,723318931203175E+002	4,4252181E-001	4,4183487E-001	-1,070913715135353E-001	1,000000000000000E+000	1,3532723E+000	38	4,5899973E+000	2,124439946332132E+001	-4,7316702E-005
2	0	0	1	0	2,731816930988498E+002	4,4082221E-001	4,4012704E-001	-1,140119773480532E-001	1,000000000000000E+000	1,3531696E+000	38	4,5899973E+000	2,209419944185356E+001	-5,0179755E-005
2	0	0	1	0	2,740314930773820E+002	4,3912259E-001	4,3843046E-001	-1,205787697761984E-001	1,000000000000000E+000	1,3530608E+000	38	4,5899973E+000	2,294399942038581E+001	-5,2865405E-005
2	0	0	1	0	2,748812930559143E+002	4,3742299E-001	4,3674928E-001	-1,275300420394605E-001	1,000000000000000E+000	1,3529464E+000	38	4,5899973E+000	2,379379939891805E+001	-5,5698652E-005
2	0	0	1	0	2,757310930344465E+002	4,3572342E-001	4,3503401E-001	-1,360443078293191E-001	1,000000000000000E+000	1,3528254E+000	38	4,5899973E+000	2,464359937745030E+001	-5,9183902E-005
2	0	0	1	0	2,765808930129788E+002	4,3402383E-001	4,3334907E-001	-1,425526031699116E-001	1,000000000000000E+000	1,3526983E+000	38	4,5899973E+000	2,549339935598255E+001	-6,1775041E-005
2	0	0	1	0	2,774305929915135E+002	4,3232441E-001	4,3162134E-001	-1,504664569348236E-001	1,000000000000000E+000	1,3525649E+000	38	4,5899973E+000	2,634309933451732E+001	-6,4944536E-005
2	0	0	1	0	2,782802929700483E+002	4,3062502E-001	4,2993268E-001	-1,578103844404262E-001	1,000000000000000E+000	1,3524250E+000	38	4,5899973E+000	2,719279931305209E+001	-6,7847839E-005
2	0	0	1	0	2,791300929485806E+002	4,2892545E-001	4,2822936E-001	-1,651292422030584E-001	1,000000000000000E+000	1,3522788E+000	38	4,5899973E+000	2,804259929158434E+001	-7,0713191E-005
2	0	0	1	0	2,799798929271128E+002	4,2722580E-001	4,2652187E-001	-1,736221571196390E-001	1,000000000000000E+000	1,3521261E+000	38	4,5899973E+000	2,889239927011658E+001	-7,4053649E-005
2	0	0	1	0	2,808296929056451E+002	4,2552623E-001	4,2482474E-001	-1,812901990189522E-001	1,000000000000000E+000	1,3519666E+000	38	4,5899973E+000	2,974219924864883E+001	-7,7016564E-005
2	0	0	1	0	2,816794928841773E+002	4,2382661E-001	4,2312708E-001	-1,883151744723741E-001	1,000000000000000E+000	1,3518008E+000	38	4,5899973E+000	3,059199922718108E+001	-7,9681253E-005
2	0	0	1	0	2,825292928627096E+002	4,2212704E-001	4,2144114E-001	-1,960332133616265E-001	1,000000000000000E+000	1,3516289E+000	38	4,5899973E+000	3,144179920571332E+001	-8,2616461E-005
2	0	0	1	0	2,833790928412418E+002	4,2042744E-001	4,1974699E-001	-2,043949219497462E-001	1,000000000000000E+000	1,3514500E+000	38	4,5899973E+000	3,229159918424557E+001	-8,5794156E-005
2	0	0	1	0	2,842288928197740E+002	4,1872782E-001	4,1805089E-001	-2,129451085424452E-001	1,000000000000000E+000	1,3512639E+000	38	4,5899973E+000	3,314139916277782E+001	-8,9021894E-005
2	0	0	1	0	2,850786927983063E+002	4,1702822E-001	4,1633758E-001	-2,195001007395199E-001	1,000000000000000E+000	1,3510715E+000	38	4,5899973E+000	3,399119914131006E+001	-9,1386144E-005
2	0	0	1	0	2,859282927768436E+002	4,1532904E-001	4,1463622E-001	-2,272540614751865E-001	1,000000000000000E+000	1,3508729E+000	38	4,5899973E+000	3,484079911984736E+001	-9,4227769E-005
2	0	0	1	0	2,867780927553758E+002	4,1362941E-001	4,1294551E-001	-2,349686560831810E-001	1,000000000000000E+000	1,3506680E+000	38	4,5899973E+000	3,569059909837961E+001	-9,7029253E-005
2	0	0	1	0	2,876278927339081E+002	4,1192982E-001	4,1122118E-001	-2,437792977636462E-001	1,000000000000000E+000	1,3504560E+000	38	4,5899973E+000	3,654039907691185E+001	-1,0024721E-004
2	0	0	1	0	2,884776927124403E+002	4,1023025E-001	4,0951103E-001	-2,493776799367959E-001	1,000000000000000E+000	1,3502380E+000	38	4,5899973E+000	3,739019905544410E+001	-1,0212291E-004
2	0	0	1	0	2,893274926909726E+002	4,0853062E-001	4,0782699E-001	-2,549908740840755E-001	1,000000000000000E+000	1,3500152E+000	38	4,5899973E+000	3,823999903397635E+001	-1,0399216E-004
2	0	0	1	0	2,901772926695048E+002	4,0683100E-001	4,0613636E-001	-2,610146707021065E-001	1,000000000000000E+000	1,3497876E+000	38	4,5899973E+000	3,908979901250859E+001	-1,0600755E-004
2	0	0	1	0	2,910270926480371E+002	4,0513143E-001	4,0441859E-001	-2,660964801391938E-001	1,000000000000000E+000	1,3495554E+000	38	4,5899973E+000	3,993959899104084E+001	-1,0761436E-004
2	0	0	1	0	2,918768926265693E+002	4,0343180E-001	4,0271583E-001	-2,713167112631250E-001	1,000000000000000E+000	1,3493186E+000	38	4,5899973E+000	4,078939896957309E+001	-1,0926354E-004
2	0	0	1	0	2,927266926051016E+002	4,0173224E-001	4,0102291E-001	-2,754339045468002E-001	1,000000000000000E+000	1,3490782E+000	38	4,5899973E+000	4,163919894810533E+001	-1,1045531E-004
2	0	0	1	0	2,935763925836363E+002	4,0003282E-001	3,9934683E-001	-2,794077759390046E-001	1,000000000000000E+000	1,3488344E+000	38	4,5899973E+000	4,248889892664010E+001	-1,1158061E-004
2	0	0	1	0	2,944260925621711E+002	3,9833343E-001	3,9762512E-001	-2,822272159303854E-001	1,000000000000000E+000	1,3485876E+000	38	4,5899973E+000	4,333859890517488E+001	-1,1222063E-004
2	0	0	1	0	2,952758925407034E+002	3,9663383E-001	3,9592844E-001	-2,849017957658799E-001	1,000000000000000E+000	1,3483386E+000	38	4,5899973E+000	4,418839888370712E+001	-1,1280072E-004
2	0	0	1	0	2,961256925192356E+002	3,9493418E-001	3,9422938E-001	-2,871556319838309E-001	1,000000000000000E+000	1,3480874E+000	38	4,5899973E+000	4,503819886223937E+001	-1,1320518E-004
2	0	0	1	0	2,969754924977678E+002	3,9323467E-001	3,9252609E-001	-2,881705994729158E-001	1,000000000000000E+000	1,3478352E+000	38	4,5899973E+000	4,588799884077162E+001	-1,1311448E-004
2	0	0	1	0	2,978252924763001E+002	3,9153501E-001	3,9083508E-001	-2,887058485097889E-001	1,000000000000000E+000	1,3475820E+000	38	4,5899973E+000	4,673779881930386E+001	-1,1283637E-004
2	0	0	1	0	2,986750924548323E+002	3,8983542E-001	3,8912800E-001	-2,898128279090550E-001	1,000000000000000E+000	1,3473282E+000	38	4,5899973E+000	4,758759879783611E+001	-1,1277429E-004
2	0	0	1	0	2,995248924333646E+002	3,8813585E-001	3,8743562E-001	-2,893004125997503E-001	1,000000000000000E+000	1,3470743E+000	38	4,5899973E+000	4,843739877636835E+001	-1,1208528E-004
2	0	0	1	0	3,003746924118968E+002	3,8643625E-001	3,8573471E-001	-2,893738214618522E-001	1,000000000000000E+000	1,3468206E+000	38	4,5899973E+000	4,928719875490060E+001	-1,1162153E-004
2	0	0	1	0	3,012243923904316E+002	3,8473684E-001	3,8403326E-001	-2,883964786570379E-001	1,000000000000000E+000	1,3465675E+000	38	4,5899973E+000	5,013689873343537E+001	-1,1075384E-004
2	0	0	1	0	3,020740923689664E+002	3,8303745E-001	3,8234636E-001	-2,859136388175068E-001	1,000000000000000E+000	1,3463157E+000	38	4,5899973E+000	5,098659871197015E+001	-1,0931804E-004
2	0	0	1	0	3,029238923474986E+002	3,8133785E-001	3,8063976E-001	-2,847843769882257E-001	1,000000000000000E+000	1,3460656E+000	38	4,5899973E+000	5,183639869050239E+001	-1,0840026E-004
2	0	0	1	0	3,037736923260309E+002	3,7963828E-001	3,7894580E-001	-2,817339027938337E-001	1,000000000000000E+000	1,3458174E+000	38	4,5899973E+000	5,268619866903464E+001	-1,0676188E-004
2	0	0	1	0	3,046234923045631E+002	3,7793863E-001	3,7724966E-001	-2,789390014474744E-001	1,000000000000000E+000	1,3455716E+000	38	4,5899973E+000	5,353599864756688E+001	-1,0522964E-004
2	0	0	1	0	3,054732922830954E+002	3,7623906E-001	3,7553856E-001	-2,770611885320080E-001	1,000000000000000E+000	1,3453280E+000	38	4,5899973E+000	5,438579862609913E+001	-1,0404716E-004
2	0	0	1	0	3,063230922616276E+002	3,7453946E-001	3,7384087E-001	-2,738597464908845E-001	1,000000000000000E+000	1,3450866E+000	38	4,5899973E+000	5,523559860463138E+001	-1,0237996E-004
2	0	0	1	0	3,071728922401599E+002	3,7283981E-001	3,7212446E-001	-2,697966706451206E-001	1,000000000000000E+000	1,3448485E+000	38	4,5899973E+000	5,608539858316362E+001	-1,0039794E-004
2	0	0	1	0	3,080226922186921E+002	3,7114024E-001	3,7043485E-001	-2,653663788195491E-001	1,000000000000000E+000	1,3446139E+000	38	4,5899973E+000	5,693519856169587E+001	-9,8300952E-005
2	0	0	1	0	3,088724921972243E+002	3,6944064E-001	3,6873573E-001	-2,613485982771482E-001	1,000000000000000E+000	1,3443831E+000	38	4,5899973E+000	5,778499854022812E+001	-9,6368567E-005
2	0	0	1	0	3,097220921757616E+002	3,6774141E-001	3,6704159E-001	-2,567274547164642E-001	1,000000000000000E+000	1,3441559E+000	38	4,5899973E+000	5,863459851876542E+001	-9,4229654E-005
2	0	0	1	0	3,105718921542939E+002	3,6604184E-001	3,6534092E-001	-2,523803450874462E-001	1,000000000000000E+000	1,3439326E+000	38	4,5899973E+000	5,948439849729766E+001	-9,2204864E-005
2	0	0	1	0	3,114216921328261E+002	3,6434227E-001	3,6363798E-001	-2,479697984079019E-001	1,000000000000000E+000	1,3437132E+000	38	4,5899973E+000	6,033419847582991E+001	-9,0171241E-005
2	0	0	1	0	3,122714921113584E+002	3,6264259E-001	3,6193067E-001	-2,436895816194851E-001	1,000000000000000E+000	1,3434975E+000	38	4,5899973E+000	6,118399845436215E+001	-8,8198736E-005
2	0	0	1	0	3,131212920898906E+002	3,6094308E-001	3,6022699E-001	-2,391897242487762E-001	1,000000000000000E+000	1,3432854E+000	38	4,5899973E+000	6,203379843289440E+001	-8,6162596E-005
2	0	0	1	0	3,139710920684229E+002	3,5924342E-001	3,5855016E-001	-2,337836392569415E-001	1,000000000000000E+000	1,3430779E+000	38	4,5899973E+000	6,288359841142665E+001	-8,3823164E-005
2	0	0	1	0	3,148208920469551E+002	3,5754383E-001	3,5682115E-001	-2,291858657190117E-001	1,000000000000000E+000	1,3428743E+000	38	4,5899973E+000	6,373339838995889E+001	-8,1778366E-005
2	0	0	1	0	3,156706920254874E+002	3,5584426E-001	3,5513020E-001	-2,234286205521763E-001	1,000000000000000E+000	1,3426754E+000	38	4,5899973E+000	6,458319836849114E+001	-7,9346253E-005
2	0	0	1	0	3,165204920040196E+002	3,5414466E-001	3,5342258E-001	-2,185818708165649E-001	1,000000000000000E+000	1,3424810E+000	38	4,5899973E+000	6,543299834702339E+001	-7,7251767E-005
2	0	0	1	0	3,173700919825569E+002	3,5244545E-001	3,5173702E-001	-2,138398813745779E-001	1,000000000000000E+000	1,3422908E+000	38	4,5899973E+000	6,628259832556068E+001	-7,5215401E-005
2	0	0	1	0	3,182198919610892E+002	3,5074583E-001	3,5001880E-001	-2,086763202984157E-001	1,000000000000000E+000	1,3421048E+000	38	4,5899973E+000	6,713239830409293E+001	-7,3040632E-005
2	0	0	1	0	3,190696919396214E+002	3,4904626E-001	3,4833798E-001	-2,040518590808085E-001	1,000000000000000E+000	1,3419231E+000	38	4,5899973E+000	6,798219828262518E+001	-7,1079012E-005
2	0	0	1	0	3,199194919181537E+002	3,4734663E-001	3,4662858E-001	-1,996857355591042E-001	1,000000000000000E+000	1,3417451E+000	38	4,5899973E+000	6,883199826115742E+001	-6,9216781E-005
2	0	0	1	0	3,207692918966859E+002	3,4564704E-001	3,4492561E-001	-1,951831755219156E-001	1,000000000000000E+000	1,3415711E+000	38	4,5899973E+000	6,968179823968967E+001	-6,7323679E-005
2	0	0	1	0	3,216190918752181E+002	3,4394747E-001	3,4324533E-001	-1,904033946582997E-001	1,000000000000000E+000	1,3414011E+000	38	4,5899973E+000	7,053159821822192E+001	-6,5355074E-005
2	0	0	1	0	3,224688918537504E+002	3,4224787E-001	3,4153658E-001	-1,860223688198970E-001	1,000000000000000E+000	1,3412350E+000	38	4,5899973E+000	7,138139819675416E+001	-6,3533444E-005
2	0	0	1	0	3,233186918322826E+002	3,4054828E-001	3,3984715E-001	-1,812961297976914E-001	1,000000000000000E+000	1,3410727E+000	38	4,5899973E+000	7,223119817528641E+001	-6,1612969E-005
2	0	0	1	0	3,241683918108174E+002	3,3884886E-001	3,3814797E-001	-1,772718601529901E-001	1,000000000000000E+000	1,3409142E+000	38	4,5899973E+000	7,308089815382118E+001	-5,9944119E-005
2	0	0	1	0	3,250180917893522E+002	3,3714947E-001	3,3644256E-001	-1,733838397174754E-001	1,000000000000000E+000	1,3407593E+000	38	4,5899973E+000	7,393059813235595E+001	-5,8333702E-005
2	0	0	1	0	3,258678917678844E+002	3,3544987E-001	3,3473957E-001	-1,691798177052899E-001	1,000000000000000E+000	1,3406078E+000	38	4,5899973E+000	7,478039811088820E+001	-5,6631179E-005
2	0	0	1	0	3,267176917464167E+002	3,3375025E-001	3,3303583E-001	-1,652252294323469E-001	1,000000000000000E+000	1,3404597E+000	38	4,5899973E+000	7,563019808942045E+001	-5,5025921E-005
2	0	0	1	0	3,275674917249489E+002	3,3205068E-001	3,3134001E-001	-1,614971373412590E-001	1,000000000000000E+000	1,3403151E+000	38	4,5899973E+000	7,647999806795269E+001	-5,3510463E-005
2	0	0	1	0	3,284172917034812E+002	3,3035105E-001	3,2964486E-001	-1,578019629041689E-001	1,000000000000000E+000	1,3401736E+000	38	4,5899973E+000	7,732979804648494E+001	-5,2018604E-005
2	0	0	1	0	3,292670916820134E+002	3,2865149E-001	3,2794365E-001	-1,545180192115683E-001	1,000000000000000E+000	1,3400352E+000	38	4,5899973E+000	7,817959802501719E+001	-5,0673203E-005
2	0	0	1	0	3,301168916605457E+002	3,2695189E-001	3,2625213E-001	-1,514213566222276E-001	1,000000000000000E+000	1,3398995E+000	38	4,5899973E+000	7,902939800354943E+001	-4,9401540E-005
2	0	0	1	0	3,309666916390779E+002	3,2525223E-001	3,2454228E-001	-1,487186282657942E-001	1,000000000000000E+000	1,3397666E+000	38	4,5899973E+000	7,987919798208168E+001	-4,8265483E-005
2	0	0	1	0	3,318164916176102E+002	3,2355267E-001	3,2282791E-001	-1,457028390611297E-001	1,000000000000000E+000	1,3396361E+000	38	4,5899973E+000	8,072899796061392E+001	-4,7036941E-005
2	0	0	1	0	3,326660915961475E+002	3,2185349E-001	3,2112348E-001	-1,426758649544677E-001	1,000000000000000E+000	1,3395082E+000	38	4,5899973E+000	8,157859793915122E+001	-4,5816570E-005
2	0	0	1	0	3,335158915746797E+002	3,2015392E-001	3,1943679E-001	-1,396522499545565E-001	1,000000000000000E+000	1,3393830E+000	38	4,5899973E+000	8,242839791768347E+001	-4,4610068E-005
2	0	0	1	0	3,343656915532119E+002	3,1845424E-001	3,1773490E-001	-1,368817131563174E-001	1,000000000000000E+000	1,3392605E+000	38	4,5899973E+000	8,327819789621572E+001	-4,3492098E-005
2	0	0	1	0	3,352154915317442E+002	3,1675467E-001	3,1605121E-001	-1,341607558342468E-001	1,000000000000000E+000	1,3391401E+000	38	4,5899973E+000	8,412799787474796E+001	-4,2401669E-005
2	0	0	1	0	3,360652915102764E+002	3,1505507E-001	3,1435016E-001	-1,316292917026576E-001	1,000000000000000E+000	1,3390222E+000	38	4,5899973E+000	8,497779785328021E+001	-4,1377687E-005
2	0	0	1	0	3,369150914888087E+002	3,1335545E-001	3,1264740E-001	-1,287222521285907E-001	1,000000000000000E+000	1,3389064E+000	38	4,5899973E+000	8,582759783181245E+001	-4,0244679E-005
2	0	0	1	0	3,377648914673409E+002	3,1165591E-001	3,1095082E-001	-1,261062020677340E-001	1,000000000000000E+000	1,3387933E+000	38	4,5899973E+000	8,667739781034470E+001	-3,9212828E-005
2	0	0	1	0	3,386146914458732E+002	3,0995631E-001	3,0923253E-001	-1,241871885627461E-001	1,000000000000000E+000	1,3386819E+000	38	4,5899973E+000	8,752719778887695E+001	-3,8402719E-005
2	0	0	1	0	3,394644914244054E+002	3,0825669E-001	3,0753297E-001	-1,219064725980509E-001	1,000000000000000E+000	1,3385725E+000	38	4,5899973E+000	8,837699776740919E+001	-3,7490259E-005
2	0	0	1	0	3,403141914029402E+002	3,0655727E-001	3,0586383E-001	-1,200844901009301E-001	1,000000000000000E+000	1,3384650E+000	38	4,5899973E+000	8,922669774594397E+001	-3,6729503E-005
2	0	0	1	0	3,411638913814750E+002	3,0485791E-001	3,0415419E-001	-1,180114301070428E-001	1,000000000000000E+000	1,3383592E+000	38	4,5899973E+000	9,007639772447874E+001	-3,5893670E-005
2	0	0	1	0	3,420136913600072E+002	3,0315828E-001	3,0246773E-001	-1,154750438514892E-001	1,000000000000000E+000	1,3382554E+000	38	4,5899973E+000	9,092619770301098E+001	-3,4927474E-005
2	0	0	1	0	3,428634913385395E+002	3,0145866E-001	3,0075902E-001	-1,135714755089130E-001	1,000000000000000E+000	1,3381536E+000	38	4,5899973E+000	9,177599768154323E+001	-3,4157645E-005
2	0	0	1	0	3,437132913170717E+002	2,9975909E-001	2,9908779E-001	-1,115786817704520E-001	1,000000000000000E+000	1,3380536E+000	38	4,5899973E+000	9,262579766007548E+001	-3,3371820E-005
2	0	0	1	0	3,445630912956040E+002	2,9805949E-001	2,9737651E-001	-1,091801599139291E-001	1,000000000000000E+000	1,3379556E+000	38	4,5899973E+000	9,347559763860772E+001	-3,2467615E-005
2	0	0	1	0	3,454128912741362E+002	2,9635990E-001	2,9566798E-001	-1,073889962824498E-001	1,000000000000000E+000	1,3378593E+000	38	4,5899973E+000	9,432539761713997E+001	-3,1751486E-005
2	0	0	1	0	3,462626912526684E+002	2,9466030E-001	2,9398549E-001	-1,050240993063995E-001	1,000000000000000E+000	1,3377650E+000	38	4,5899973E+000	9,517519759567222E+001	-3,0875563E-005
2	0	0	1	0	3,471124912312007E+002	2,9296067E-001	2,9226977E-001	-1,031534977565484E-001	1,000000000000000E+000	1,3376725E+000	38	4,5899973E+000	9,602499757420446E+001	-3,0148649E-005
2	0	0	1	0	3,479622912097329E+002	2,9126108E-001	2,9059052E-001	-1,018657950055175E-001	1,000000000000000E+000	1,3375814E+000	38	4,5899973E+000	9,687479755273671E+001	-2,9601235E-005
2	0	0	1	0	3,488118911882702E+002	2,8956187E-001	2,8890255E-001	-1,003083215822334E-001	1,000000000000000E+000	1,3374918E+000	38	4,5899973E+000	9,772439753127401E+001	-2,8979330E-005
2	0	0	1	0	3,496616911668025E+002	2,8786230E-001	2,8719172E-001	-9,837646201845185E-002	1,000000000000000E+000	1,3374037E+000	38	4,5899973E+000	9,857419750980625E+001	-2,8252905E-005
2	0	0	1	0	3,505114911453347E+002	2,8616267E-001	2,8549218E-001	-9,673168507069063E-002	1,000000000000000E+000	1,3373171E+000	38	4,5899973E+000	9,942399748833850E+001	-2,7616139E-005
2	0	0	1	0	3,513612911238670E+002	2,8446308E-001	2,8377321E-001	-9,504108164903485E-002	1,000000000000000E+000	1,3372320E+000	38	4,5899973E+000	1,002737974668707E+002	-2,6970114E-005
2	0	0	1	0	3,522110911023992E+002	2,8276351E-001	2,8207791E-001	-9,302243519959924E-002	1,000000000000000E+000	1,3371487E+000	38	4,5899973E+000	1,011235974454030E+002	-2,6239573E-005
2	0	0	1	0	3,530608910809315E+002	2,8106388E-001	2,8037676E-001	-9,113428783209843E-002	1,000000000000000E+000	1,3370671E+000	38	4,5899973E+000	1,019733974239352E+002	-2,5551937E-005
2	0	0	1	0	3,539106910594637E+002	2,7936429E-001	2,7868688E-001	-8,939143650139414E-002	1,000000000000000E+000	1,3369871E+000	38	4,5899973E+000	1,028231974024675E+002	-2,4912220E-005
2	0	0	1	0	3,547104910392591E+002	2,7776468E-001	2,7707976E-001	-8,774956195827166E-002	1,000000000000000E+000	1,3369132E+000	38	4,5899978E+000	1,036229973822628E+002	-2,4313627E-005
2	0	0	1	1	3,550681910302228E+002	2,7696514E-001	2,7628088E-001	-8,182364702224731E-002	1,000000000000000E+000	1,3368804E+000	38	4,5899997E+000	1,039806973732266E+002	-2,2606309E-005