EC-Lab ASCII FILE
Nb header lines : 63                          

Cyclic Voltammetry

Run on channel : 1 (SN 1153)
User : 
Electrode connection : standard
Potential control : Ewe
Ewe ctrl range : min = -2,50 V, max = 2,50 V
Ewe,I filtering : 50 kHz
Safety Limits :
	Do not start on E overload
Channel : Grounded
Acquisition started on : 12/16/2024 13:22:43.286
Technique started on : 12/16/2024 13:22:48.387
Loaded Setting File :  C:\Users\lab10\Desktop\Luka Suhadolnik\Maja Mejrema\23. julij 2024\K11-2_FeCoNiCuMn_N700C30m_AO50V5m\4 OER.mps
Saved on :
	File : 6 OER_03_CV_C01.mpr
	Directory : C:\Users\lab10\Desktop\Luka Suhadolnik\K12-3_FeCoNiCuMn\
	Host : 192.168.0.28
Device : SP-200 (SN 0067)
Address : USB
EC-Lab for windows v11.52 (software)
Internet server v11.52 (firmware)
Command interpretor v11.52 (firmware)
Electrode material : 
Initial state : 
Electrolyte : 
Comments : 
Cable : standard
Electrode surface area : 0,001 cm²
Characteristic mass : 0,001 g
Equivalent Weight : 0,000 g/eq.
Density : 0,000 g/cm3
Volume (V) : 0,001 cm³
Cycle Definition : Charge/Discharge alternance
Ei (V)              0,277               
vs.                 Ref                 
dE/dt               2,000               
dE/dt unit          mV/s                
E1 (V)              0,677               
vs.                 Ref                 
Step percent        85                  
N                   17                  
E range min (V)     -2,500              
E range max (V)     2,500               
I Range             100 mA              
I Range min         Unset               
I Range max         Unset               
I Range init        Unset               
Bandwidth           8                   
E2 (V)              0,277               
vs.                 Ref                 
nc cycles           1                   
Reverse Scan        1                   
Ef (V)              0,277               
vs.                 Ref                 

Modify on : 12/16/2024 13:26
nc cycles           0                   

mode	ox/red	error	control changes	counter inc.	time/s	control/V	Ewe/V	<I>/mA	cycle number	(Q-Qo)/C	I Range	Rcmp/Ohm	step time/s	P/W	
2	1	0	1	0	5,100999871137901E+000	2,7701002E-001	2,7618948E-001	6,780205368995667E-001	1,000000000000000E+000	0,0000000E+000	38	5,6949992E+000	0,000000000000000E+000	1,8726214E-004
2	1	0	1	0	5,550899859772471E+000	2,7790961E-001	2,7704901E-001	6,541479484396611E-001	1,000000000000000E+000	2,9515714E-004	38	5,6949954E+000	0,000000000000000E+000	1,8123104E-004
2	1	0	1	0	6,400699838304718E+000	2,7960923E-001	2,7874509E-001	6,072364413637297E-001	1,000000000000000E+000	8,3034602E-004	38	5,6949954E+000	8,497999785322463E-001	1,6926417E-004
2	1	0	1	0	7,250499816836964E+000	2,8130880E-001	2,8045249E-001	5,691547933039089E-001	1,000000000000000E+000	1,3295732E-003	38	5,6949954E+000	1,699599957064493E+000	1,5962087E-004
2	1	0	1	0	8,100299795369210E+000	2,8300840E-001	2,8214049E-001	5,368550917971664E-001	1,000000000000000E+000	1,7990578E-003	38	5,6949954E+000	2,549399935596739E+000	1,5146856E-004
2	1	0	1	0	8,950099773901457E+000	2,8470799E-001	2,8383702E-001	5,100397310922187E-001	1,000000000000000E+000	2,2435156E-003	38	5,6949954E+000	3,399199914128985E+000	1,4476816E-004
2	1	0	1	0	9,799899752433703E+000	2,8640759E-001	2,8553414E-001	4,872001305975004E-001	1,000000000000000E+000	2,6669910E-003	38	5,6949954E+000	4,248999892661232E+000	1,3911228E-004
2	1	0	1	0	1,064949973097100E+001	2,8810680E-001	2,8724071E-001	4,676430675404140E-001	1,000000000000000E+000	3,0724064E-003	38	5,6949954E+000	5,098599871198530E+000	1,3432612E-004
2	1	0	1	0	1,149929970950325E+001	2,8980643E-001	2,8893629E-001	4,507501790346131E-001	1,000000000000000E+000	3,4625195E-003	38	5,6949954E+000	5,948399849730777E+000	1,3023808E-004
2	1	0	1	0	1,234909968803549E+001	2,9150599E-001	2,9063973E-001	4,360759869487087E-001	1,000000000000000E+000	3,8392555E-003	38	5,6949954E+000	6,798199828263023E+000	1,2674101E-004
2	1	0	1	0	1,319889966656774E+001	2,9320562E-001	2,9232287E-001	4,224120799104369E-001	1,000000000000000E+000	4,2040115E-003	38	5,6949954E+000	7,647999806795269E+000	1,2348071E-004
2	1	0	1	0	1,404869964509999E+001	2,9490522E-001	2,9404396E-001	4,100323838881614E-001	1,000000000000000E+000	4,5577157E-003	38	5,6949954E+000	8,497799785327516E+000	1,2056754E-004
2	1	0	1	0	1,489849962363223E+001	2,9660481E-001	2,9574633E-001	3,996231509826975E-001	1,000000000000000E+000	4,9017733E-003	38	5,6949954E+000	9,347599763859762E+000	1,1818708E-004
2	1	0	1	0	1,574829960216448E+001	2,9830438E-001	2,9745734E-001	3,899021292059999E-001	1,000000000000000E+000	5,2372888E-003	38	5,6949954E+000	1,019739974239201E+001	1,1597925E-004
2	1	0	1	0	1,659809958069673E+001	3,0000401E-001	2,9913610E-001	3,809411951539232E-001	1,000000000000000E+000	5,5648703E-003	38	5,6949954E+000	1,104719972092425E+001	1,1395326E-004
2	1	0	1	0	1,744769955923402E+001	3,0170321E-001	3,0083755E-001	3,726466007685127E-001	1,000000000000000E+000	5,8850646E-003	38	5,6949954E+000	1,189679969946155E+001	1,1210609E-004
2	1	0	1	0	1,829749953776627E+001	3,0340281E-001	3,0252513E-001	3,650056850623278E-001	1,000000000000000E+000	6,1985892E-003	38	5,6949954E+000	1,274659967799380E+001	1,1042340E-004
2	1	0	1	0	1,914729951629852E+001	3,0510241E-001	3,0421755E-001	3,578562792612248E-001	1,000000000000000E+000	6,5058521E-003	38	5,6949954E+000	1,359639965652605E+001	1,0886616E-004
2	1	0	1	0	1,999709949483076E+001	3,0680200E-001	3,0592212E-001	3,515061510527668E-001	1,000000000000000E+000	6,8073729E-003	38	5,6949954E+000	1,444619963505829E+001	1,0753351E-004
2	1	0	1	0	2,084689947336301E+001	3,0850157E-001	3,0761671E-001	3,455562119226396E-001	1,000000000000000E+000	7,1037011E-003	38	5,6949954E+000	1,529599961359054E+001	1,0629887E-004
2	1	0	1	0	2,169669945189526E+001	3,1020117E-001	3,0931768E-001	3,399969383559949E-001	1,000000000000000E+000	7,3951161E-003	38	5,6949954E+000	1,614579959212278E+001	1,0516706E-004
2	1	0	1	0	2,254649943042750E+001	3,1190079E-001	3,1101063E-001	3,352143639715770E-001	1,000000000000000E+000	7,6821437E-003	38	5,6949954E+000	1,699559957065503E+001	1,0425523E-004
2	1	0	1	0	2,339629940895975E+001	3,1360039E-001	3,1270775E-001	3,303662156443483E-001	1,000000000000000E+000	7,9650916E-003	38	5,6949954E+000	1,784539954918728E+001	1,0330808E-004
2	1	0	1	0	2,424589938749705E+001	3,1529957E-001	3,1441081E-001	3,261723763418201E-001	1,000000000000000E+000	8,2441708E-003	38	5,6949954E+000	1,869499952772458E+001	1,0255212E-004
2	1	0	1	0	2,509569936602929E+001	3,1699917E-001	3,1611714E-001	3,220992945130212E-001	1,000000000000000E+000	8,5197855E-003	38	5,6949954E+000	1,954479950625682E+001	1,0182110E-004
2	1	0	1	0	2,594549934456154E+001	3,1869879E-001	3,1781405E-001	3,180922086046394E-001	1,000000000000000E+000	8,7919552E-003	38	5,6949954E+000	2,039459948478907E+001	1,0109417E-004
2	1	0	1	0	2,679529932309379E+001	3,2039839E-001	3,1951824E-001	3,144897990932147E-001	1,000000000000000E+000	9,0608951E-003	38	5,6949954E+000	2,124439946332132E+001	1,0048522E-004
2	1	0	1	0	2,764509930162603E+001	3,2209796E-001	3,2121214E-001	3,111567792222781E-001	1,000000000000000E+000	9,3268827E-003	38	5,6949954E+000	2,209419944185356E+001	9,9947334E-005
2	1	0	1	0	2,849489928015828E+001	3,2379758E-001	3,2291421E-001	3,079467365471258E-001	1,000000000000000E+000	9,5901359E-003	38	5,6949954E+000	2,294399942038581E+001	9,9440374E-005
2	1	0	1	0	2,934469925869053E+001	3,2549721E-001	3,2462206E-001	3,045794719981045E-001	1,000000000000000E+000	9,8505784E-003	38	5,6949954E+000	2,379379939891805E+001	9,8873214E-005
2	1	0	1	0	3,019449923722277E+001	3,2719678E-001	3,2632875E-001	3,017226475672127E-001	1,000000000000000E+000	1,0108384E-002	38	5,6949954E+000	2,464359937745030E+001	9,8460776E-005
2	1	0	1	0	3,104409921576007E+001	3,2889599E-001	3,2800719E-001	2,990078355669776E-001	1,000000000000000E+000	1,0363769E-002	38	5,6949964E+000	2,549319935598760E+001	9,8076722E-005
2	1	0	1	0	3,189389919429232E+001	3,3059561E-001	3,2972941E-001	2,961986288867382E-001	1,000000000000000E+000	1,0616894E-002	38	5,6949954E+000	2,634299933451985E+001	9,7665397E-005
2	1	0	1	0	3,274369917282456E+001	3,3229518E-001	3,3141217E-001	2,935810996056111E-001	1,000000000000000E+000	1,0867705E-002	38	5,6949954E+000	2,719279931305209E+001	9,7296346E-005
2	1	0	1	0	3,359349915135681E+001	3,3399478E-001	3,3312529E-001	2,914644211806736E-001	1,000000000000000E+000	1,1116510E-002	38	5,6949954E+000	2,804259929158434E+001	9,7094169E-005
2	1	0	1	0	3,444329912988906E+001	3,3569434E-001	3,3481246E-001	2,889804536481869E-001	1,000000000000000E+000	1,1363367E-002	38	5,6949954E+000	2,889239927011658E+001	9,6754258E-005
2	1	0	1	0	3,529309910842130E+001	3,3739397E-001	3,3651289E-001	2,865656678714745E-001	1,000000000000000E+000	1,1608131E-002	38	5,6949954E+000	2,974219924864883E+001	9,6433039E-005
2	1	0	1	0	3,614289908695355E+001	3,3909354E-001	3,3820450E-001	2,844361599389100E-001	1,000000000000000E+000	1,1850965E-002	38	5,6949954E+000	3,059199922718108E+001	9,6197589E-005
2	1	0	1	0	3,699269906548579E+001	3,4079316E-001	3,3990762E-001	2,823068121769481E-001	1,000000000000000E+000	1,2092022E-002	38	5,6949954E+000	3,144179920571332E+001	9,5958232E-005
2	1	0	1	0	3,784229904402309E+001	3,4249234E-001	3,4161159E-001	2,803488681078556E-001	1,000000000000000E+000	1,2331255E-002	38	5,6949964E+000	3,229139918425062E+001	9,5770425E-005
2	1	0	1	0	3,869209902255534E+001	3,4419200E-001	3,4330091E-001	2,783719636668347E-001	1,000000000000000E+000	1,2568884E-002	38	5,6949954E+000	3,314119916278287E+001	9,5565345E-005
2	1	0	1	0	3,954189900108759E+001	3,4589159E-001	3,4499654E-001	2,765689523021029E-001	1,000000000000000E+000	1,2804898E-002	38	5,6949954E+000	3,399099914131511E+001	9,5415329E-005
2	1	0	1	0	4,039169897961983E+001	3,4759116E-001	3,4670132E-001	2,746803397033384E-001	1,000000000000000E+000	1,3039364E-002	38	5,6949954E+000	3,484079911984736E+001	9,5232041E-005
2	1	0	1	0	4,124149895815208E+001	3,4929073E-001	3,4839460E-001	2,732789298086953E-001	1,000000000000000E+000	1,3272419E-002	38	5,6949954E+000	3,569059909837961E+001	9,5208903E-005
2	1	0	1	0	4,209129893668432E+001	3,5099036E-001	3,5009584E-001	2,718307101730519E-001	1,000000000000000E+000	1,3504275E-002	38	5,6949954E+000	3,654039907691185E+001	9,5166797E-005
2	1	0	1	0	4,294109891521657E+001	3,5268998E-001	3,5179794E-001	2,703165401532162E-001	1,000000000000000E+000	1,3734879E-002	38	5,6949954E+000	3,739019905544410E+001	9,5096802E-005
2	1	0	1	0	4,379089889374882E+001	3,5438955E-001	3,5350046E-001	2,687450970650211E-001	1,000000000000000E+000	1,3964153E-002	38	5,6949954E+000	3,823999903397635E+001	9,5001516E-005
2	1	0	1	0	4,464059887228359E+001	3,5608894E-001	3,5521510E-001	2,678685812915338E-001	1,000000000000000E+000	1,4192363E-002	38	5,6949959E+000	3,908969901251112E+001	9,5150965E-005
2	1	0	1	0	4,549029885081836E+001	3,5778838E-001	3,5691297E-001	2,666384033570304E-001	1,000000000000000E+000	1,4419666E-002	38	5,6949954E+000	3,993939899104589E+001	9,5166703E-005
2	1	0	1	0	4,634009882935061E+001	3,5948798E-001	3,5860914E-001	2,653235175020816E-001	1,000000000000000E+000	1,4645912E-002	38	5,6949954E+000	4,078919896957814E+001	9,5147436E-005
2	1	0	1	0	4,718989880788286E+001	3,6118755E-001	3,6030549E-001	2,640826079333258E-001	1,000000000000000E+000	1,4871103E-002	38	5,6949954E+000	4,163899894811038E+001	9,5150412E-005
2	1	0	1	0	4,803969878641510E+001	3,6288714E-001	3,6200207E-001	2,626894939457456E-001	1,000000000000000E+000	1,5095149E-002	38	5,6949954E+000	4,248879892664263E+001	9,5094139E-005
2	1	0	1	0	4,888949876494735E+001	3,6458677E-001	3,6372596E-001	2,615559120260977E-001	1,000000000000000E+000	1,5318140E-002	38	5,6949954E+000	4,333859890517488E+001	9,5134674E-005
2	1	0	1	0	4,973929874347959E+001	3,6628634E-001	3,6541650E-001	2,605994075584095E-001	1,000000000000000E+000	1,5540257E-002	38	5,6949954E+000	4,418839888370712E+001	9,5227326E-005
2	1	0	1	0	5,058909872201184E+001	3,6798596E-001	3,6711329E-001	2,597157903482397E-001	1,000000000000000E+000	1,5761578E-002	38	5,6949954E+000	4,503819886223937E+001	9,5345116E-005
2	1	0	1	0	5,143889870054409E+001	3,6968553E-001	3,6881709E-001	2,584018346841086E-001	1,000000000000000E+000	1,5981972E-002	38	5,6949954E+000	4,588799884077162E+001	9,5303010E-005
2	1	0	1	0	5,228849867908139E+001	3,7138477E-001	3,7051454E-001	2,572969580601656E-001	1,000000000000000E+000	1,6201273E-002	38	5,6949954E+000	4,673759881930891E+001	9,5332267E-005
2	1	0	1	0	5,313829865761363E+001	3,7308440E-001	3,7222841E-001	2,563845894338082E-001	1,000000000000000E+000	1,6419809E-002	38	5,6949954E+000	4,758739879784116E+001	9,5433628E-005
2	1	0	1	0	5,398809863614588E+001	3,7478396E-001	3,7392101E-001	2,558592270254485E-001	1,000000000000000E+000	1,6637711E-002	38	5,6949954E+000	4,843719877637341E+001	9,5671137E-005
2	1	0	1	0	5,483789861467812E+001	3,7648353E-001	3,7563175E-001	2,550533367382042E-001	1,000000000000000E+000	1,6855033E-002	38	5,6949954E+000	4,928699875490565E+001	9,5806128E-005
2	1	0	1	0	5,568769859321037E+001	3,7818319E-001	3,7732410E-001	2,543671181134637E-001	1,000000000000000E+000	1,7071741E-002	38	5,6949954E+000	5,013679873343790E+001	9,5978845E-005
2	1	0	1	0	5,653749857174262E+001	3,7988272E-001	3,7901816E-001	2,531731472837011E-001	1,000000000000000E+000	1,7287640E-002	38	5,6949954E+000	5,098659871197015E+001	9,5957221E-005
2	1	0	1	0	5,738729855027486E+001	3,8158232E-001	3,8071936E-001	2,525731013404139E-001	1,000000000000000E+000	1,7502801E-002	38	5,6949954E+000	5,183639869050239E+001	9,6159471E-005
2	1	0	1	0	5,823699852880964E+001	3,8328174E-001	3,8241121E-001	2,519711869371232E-001	1,000000000000000E+000	1,7717397E-002	38	5,6949959E+000	5,268609866903716E+001	9,6356605E-005
2	1	0	1	0	5,908669850734441E+001	3,8498119E-001	3,8411251E-001	2,511530196357779E-001	1,000000000000000E+000	1,7931404E-002	38	5,6949954E+000	5,353579864757194E+001	9,6471013E-005
2	1	0	1	0	5,993649848587665E+001	3,8668075E-001	3,8581738E-001	2,501516643415502E-001	1,000000000000000E+000	1,8144669E-002	38	5,6949954E+000	5,438559862610418E+001	9,6512857E-005
2	1	0	1	0	6,078629846440890E+001	3,8838032E-001	3,8749567E-001	2,494855166063457E-001	1,000000000000000E+000	1,8357223E-002	38	5,6949954E+000	5,523539860463643E+001	9,6674557E-005
2	1	0	1	0	6,163609844294115E+001	3,9007998E-001	3,8918093E-001	2,490270038602120E-001	1,000000000000000E+000	1,8569296E-002	38	5,6949954E+000	5,608519858316868E+001	9,6916563E-005
2	1	0	1	0	6,248589842147339E+001	3,9177957E-001	3,9088255E-001	2,482904341591191E-001	1,000000000000000E+000	1,8780870E-002	38	5,6949954E+000	5,693499856170092E+001	9,7052398E-005
2	1	0	1	0	6,333569840000564E+001	3,9347914E-001	3,9259997E-001	2,476834601799323E-001	1,000000000000000E+000	1,8991871E-002	38	5,6949954E+000	5,778479854023317E+001	9,7240518E-005
2	1	0	1	0	6,418549837853789E+001	3,9517877E-001	3,9430189E-001	2,469965523222881E-001	1,000000000000000E+000	1,9202318E-002	38	5,6949954E+000	5,863459851876542E+001	9,7391210E-005
2	1	0	1	0	6,503529835707013E+001	3,9687830E-001	3,9599207E-001	2,464238792446052E-001	1,000000000000000E+000	1,9412244E-002	38	5,6949954E+000	5,948439849729766E+001	9,7581906E-005
2	1	0	1	0	6,588489833560743E+001	3,9857754E-001	3,9768231E-001	2,462884115966357E-001	1,000000000000000E+000	1,9621829E-002	38	5,6949954E+000	6,033399847583496E+001	9,7944547E-005
2	1	0	1	0	6,673469831413968E+001	4,0027717E-001	3,9939526E-001	2,460714632230938E-001	1,000000000000000E+000	1,9831304E-002	38	5,6949954E+000	6,118379845436721E+001	9,8279772E-005
2	1	0	1	0	6,758449829267192E+001	4,0197670E-001	4,0110496E-001	2,456980789269113E-001	1,000000000000000E+000	2,0040553E-002	38	5,6949954E+000	6,203359843289945E+001	9,8550714E-005
2	1	0	1	0	6,843429827120417E+001	4,0367636E-001	4,0280792E-001	2,453528635328429E-001	1,000000000000000E+000	2,0249497E-002	38	5,6949954E+000	6,288339841143170E+001	9,8830074E-005
2	1	0	1	0	6,928409824973642E+001	4,0537596E-001	4,0451723E-001	2,449732504170141E-001	1,000000000000000E+000	2,0458121E-002	38	5,6949954E+000	6,373319838996395E+001	9,9095902E-005
2	1	0	1	0	7,013389822826866E+001	4,0707552E-001	4,0621868E-001	2,448485788676830E-001	1,000000000000000E+000	2,0666551E-002	38	5,6949954E+000	6,458299836849619E+001	9,9462064E-005
2	1	0	1	0	7,098369820680091E+001	4,0877512E-001	4,0791383E-001	2,446030353476787E-001	1,000000000000000E+000	2,0874798E-002	38	5,6949954E+000	6,543279834702844E+001	9,9776960E-005
2	1	0	1	0	7,183349818533316E+001	4,1047472E-001	4,0961200E-001	2,441065230161144E-001	1,000000000000000E+000	2,1082731E-002	38	5,6949954E+000	6,628259832556068E+001	9,9988960E-005
2	1	0	1	0	7,268309816387045E+001	4,1217393E-001	4,1130981E-001	2,441571114673864E-001	1,000000000000000E+000	2,1290436E-002	38	5,6949964E+000	6,713219830409798E+001	1,0042421E-004
2	1	0	1	0	7,353289814240270E+001	4,1387355E-001	4,1301426E-001	2,437830990802650E-001	1,000000000000000E+000	2,1498056E-002	38	5,6949954E+000	6,798199828263023E+001	1,0068589E-004
2	1	0	1	0	7,438269812093495E+001	4,1557318E-001	4,1472098E-001	2,433899348730601E-001	1,000000000000000E+000	2,1705344E-002	38	5,6949954E+000	6,883179826116248E+001	1,0093892E-004
2	1	0	1	0	7,523249809946719E+001	4,1727275E-001	4,1641408E-001	2,429413958800674E-001	1,000000000000000E+000	2,1912269E-002	38	5,6949954E+000	6,968159823969472E+001	1,0116422E-004
2	1	0	1	0	7,608229807799944E+001	4,1897231E-001	4,1810673E-001	2,426872818824826E-001	1,000000000000000E+000	2,2118893E-002	38	5,6949954E+000	7,053139821822697E+001	1,0146919E-004
2	1	0	1	0	7,693209805653169E+001	4,2067191E-001	4,1981021E-001	2,427256467503147E-001	1,000000000000000E+000	2,2325423E-002	38	5,6949954E+000	7,138119819675921E+001	1,0189870E-004
2	1	0	1	0	7,778189803506393E+001	4,2237151E-001	4,2147878E-001	2,427741260596494E-001	1,000000000000000E+000	2,2532020E-002	38	5,6949954E+000	7,223099817529146E+001	1,0232414E-004
2	1	0	1	0	7,863169801359618E+001	4,2407110E-001	4,2318416E-001	2,429064443298827E-001	1,000000000000000E+000	2,2738671E-002	38	5,6949954E+000	7,308079815382371E+001	1,0279416E-004
2	1	0	1	0	7,948129799213348E+001	4,2577037E-001	4,2488757E-001	2,424569499964511E-001	1,000000000000000E+000	2,2945162E-002	38	5,6949954E+000	7,393039813236101E+001	1,0301694E-004
2	1	0	1	0	8,033109797066572E+001	4,2746994E-001	4,2658174E-001	2,418559383788943E-001	1,000000000000000E+000	2,3151232E-002	38	5,6949954E+000	7,478019811089325E+001	1,0317133E-004
2	1	0	1	0	8,118089794919797E+001	4,2916954E-001	4,2829707E-001	2,418969014504326E-001	1,000000000000000E+000	2,3357093E-002	38	5,6949954E+000	7,562999808942550E+001	1,0360374E-004
2	1	0	1	0	8,203069792773022E+001	4,3086916E-001	4,2998973E-001	2,416745789796133E-001	1,000000000000000E+000	2,3562860E-002	38	5,6949954E+000	7,647979806795774E+001	1,0391758E-004
2	1	0	1	0	8,288049790626246E+001	4,3256873E-001	4,3169963E-001	2,415994634627974E-001	1,000000000000000E+000	2,3768526E-002	38	5,6949954E+000	7,732959804648999E+001	1,0429840E-004
2	1	0	1	0	8,373029788479471E+001	4,3426833E-001	4,3339553E-001	2,416452457653839E-001	1,000000000000000E+000	2,3974154E-002	38	5,6949954E+000	7,817939802502224E+001	1,0472797E-004
2	1	0	1	0	8,458009786332696E+001	4,3596795E-001	4,3510112E-001	2,413019599997410E-001	1,000000000000000E+000	2,4179671E-002	38	5,6949954E+000	7,902919800355448E+001	1,0499075E-004
2	1	0	1	0	8,542989784185920E+001	4,3766755E-001	4,3677798E-001	2,414116028129754E-001	1,000000000000000E+000	2,4385078E-002	38	5,6949954E+000	7,987899798208673E+001	1,0544327E-004
2	1	0	1	0	8,627959782039397E+001	4,3936694E-001	4,3847382E-001	2,414399310386548E-001	1,000000000000000E+000	2,4590554E-002	38	5,6949959E+000	8,072869796062150E+001	1,0586509E-004
2	1	0	1	0	8,712929779892875E+001	4,4106638E-001	4,4018212E-001	2,415459395968909E-001	1,000000000000000E+000	2,4796069E-002	38	5,6949954E+000	8,157839793915628E+001	1,0632420E-004
2	1	0	1	0	8,797909777746099E+001	4,4276595E-001	4,4188279E-001	2,411756245087295E-001	1,000000000000000E+000	2,5001507E-002	38	5,6949954E+000	8,242819791768852E+001	1,0657136E-004
2	1	0	1	0	8,882889775599324E+001	4,4446552E-001	4,4357562E-001	2,409652054307141E-001	1,000000000000000E+000	2,5206698E-002	38	5,6949954E+000	8,327799789622077E+001	1,0688629E-004
2	1	0	1	0	8,967869773452549E+001	4,4616511E-001	4,4527903E-001	2,405913126300829E-001	1,000000000000000E+000	2,5411637E-002	38	5,6949954E+000	8,412779787475301E+001	1,0713027E-004
2	1	0	1	0	9,052849771305773E+001	4,4786477E-001	4,4699368E-001	2,405018538524064E-001	1,000000000000000E+000	2,5616365E-002	38	5,6949954E+000	8,497759785328526E+001	1,0750280E-004
2	1	0	1	0	9,137829769158998E+001	4,4956428E-001	4,4867298E-001	2,404755755683277E-001	1,000000000000000E+000	2,5821067E-002	38	5,6949954E+000	8,582739783181751E+001	1,0789489E-004
2	1	0	1	0	9,222809767012222E+001	4,5126393E-001	4,5039010E-001	2,408134886644948E-001	1,000000000000000E+000	2,6025904E-002	38	5,6949954E+000	8,667719781034975E+001	1,0846001E-004
2	1	0	1	0	9,307769764865952E+001	4,5296311E-001	4,5210859E-001	2,407448419938731E-001	1,000000000000000E+000	2,6230827E-002	38	5,6949964E+000	8,752679778888705E+001	1,0884281E-004
2	1	0	1	0	9,392749762719177E+001	4,5466268E-001	4,5380491E-001	2,409395354956940E-001	1,000000000000000E+000	2,6435854E-002	38	5,6949954E+000	8,837659776741930E+001	1,0933955E-004
2	1	0	1	0	9,477729760572402E+001	4,5636234E-001	4,5549163E-001	2,415659207343182E-001	1,000000000000000E+000	2,6641235E-002	38	5,6949954E+000	8,922639774595154E+001	1,1003126E-004
2	1	0	1	0	9,562709758425626E+001	4,5806193E-001	4,5718777E-001	2,419250095961867E-001	1,000000000000000E+000	2,6847037E-002	38	5,6949954E+000	9,007619772448379E+001	1,1060516E-004
2	1	0	1	0	9,647689756278851E+001	4,5976150E-001	4,5890146E-001	2,420131215841010E-001	1,000000000000000E+000	2,7053034E-002	38	5,6949954E+000	9,092599770301604E+001	1,1106017E-004
2	1	0	1	0	9,732669754132075E+001	4,6146110E-001	4,6057904E-001	2,426349976363888E-001	1,000000000000000E+000	2,7259337E-002	38	5,6949954E+000	9,177579768154828E+001	1,1175260E-004
2	1	0	1	0	9,817649751985300E+001	4,6316072E-001	4,6226403E-001	2,425272376534169E-001	1,000000000000000E+000	2,7465854E-002	38	5,6949954E+000	9,262559766008053E+001	1,1211162E-004
2	1	0	1	0	9,902629749838525E+001	4,6486032E-001	4,6396995E-001	2,421681033681371E-001	1,000000000000000E+000	2,7672142E-002	38	5,6949954E+000	9,347539763861278E+001	1,1235872E-004
2	1	0	1	0	9,987599747692002E+001	4,6655971E-001	4,6567857E-001	2,421342944069798E-001	1,000000000000000E+000	2,7878277E-002	38	5,6949959E+000	9,432509761714755E+001	1,1275675E-004
2	1	0	1	0	1,007256974554548E+002	4,6825913E-001	4,6735778E-001	2,422344177666114E-001	1,000000000000000E+000	2,8084442E-002	38	5,6949954E+000	9,517479759568232E+001	1,1321014E-004
2	1	0	1	0	1,015754974339870E+002	4,6995872E-001	4,6907890E-001	2,425924068756893E-001	1,000000000000000E+000	2,8290851E-002	38	5,6949954E+000	9,602459757421457E+001	1,1379498E-004
2	1	0	1	0	1,024252974125193E+002	4,7165832E-001	4,7077924E-001	2,430504517864822E-001	1,000000000000000E+000	2,8497597E-002	38	5,6949954E+000	9,687439755274681E+001	1,1442311E-004
2	1	0	1	0	1,032750973910515E+002	4,7335798E-001	4,7248200E-001	2,429840666779821E-001	1,000000000000000E+000	2,8704518E-002	38	5,6949954E+000	9,772419753127906E+001	1,1480560E-004
2	1	0	1	0	1,041248973695838E+002	4,7505754E-001	4,7418451E-001	2,433175845362552E-001	1,000000000000000E+000	2,8911542E-002	38	5,6949954E+000	9,857399750981131E+001	1,1537743E-004
2	1	0	1	0	1,049746973481160E+002	4,7675711E-001	4,7590032E-001	2,433500361260243E-001	1,000000000000000E+000	2,9118713E-002	38	5,6949954E+000	9,942379748834355E+001	1,1581036E-004
2	1	0	1	0	1,058244973266483E+002	4,7845674E-001	4,7760272E-001	2,434949220895306E-001	1,000000000000000E+000	2,9325971E-002	38	5,6949954E+000	1,002735974668758E+002	1,1629384E-004
2	1	0	1	0	1,066742973051805E+002	4,8015630E-001	4,7928157E-001	2,434425719866380E-001	1,000000000000000E+000	2,9533271E-002	38	5,6949954E+000	1,011233974454080E+002	1,1667754E-004
2	1	0	1	0	1,075238972837178E+002	4,8185551E-001	4,8099411E-001	2,434373611666594E-001	1,000000000000000E+000	2,9740496E-002	38	5,6949954E+000	1,019729974239453E+002	1,1709193E-004
2	1	0	1	0	1,083736972622501E+002	4,8355514E-001	4,8268101E-001	2,436536016554265E-001	1,000000000000000E+000	2,9947879E-002	38	5,6949954E+000	1,028227974024776E+002	1,1760696E-004
2	1	0	1	0	1,092234972407823E+002	4,8525468E-001	4,8437876E-001	2,439174713129493E-001	1,000000000000000E+000	3,0155493E-002	38	5,6949954E+000	1,036725973810098E+002	1,1814844E-004
2	1	0	1	0	1,100732972193146E+002	4,8695436E-001	4,8607406E-001	2,443202737125408E-001	1,000000000000000E+000	3,0363362E-002	38	5,6949954E+000	1,045223973595421E+002	1,1875775E-004
2	1	0	1	0	1,109230971978468E+002	4,8865396E-001	4,8777324E-001	2,446394298270738E-001	1,000000000000000E+000	3,0571565E-002	38	5,6949954E+000	1,053721973380743E+002	1,1932856E-004
2	1	0	1	0	1,117728971763790E+002	4,9035349E-001	4,8948014E-001	2,455725281817993E-001	1,000000000000000E+000	3,0780302E-002	38	5,6949954E+000	1,062219973166066E+002	1,2020287E-004
2	1	0	1	0	1,126226971549113E+002	4,9205312E-001	4,9116954E-001	2,462226090352084E-001	1,000000000000000E+000	3,0989733E-002	38	5,6949954E+000	1,070717972951388E+002	1,2093705E-004
2	1	0	1	0	1,134723971334461E+002	4,9375251E-001	4,9288681E-001	2,462413252483060E-001	1,000000000000000E+000	3,1199399E-002	38	5,6949959E+000	1,079214972736736E+002	1,2136910E-004
2	1	0	1	0	1,143220971119808E+002	4,9545190E-001	4,9458376E-001	2,465413270335519E-001	1,000000000000000E+000	3,1409234E-002	38	5,6949954E+000	1,087711972522084E+002	1,2193534E-004
2	1	0	1	0	1,151718970905131E+002	4,9715149E-001	4,9628034E-001	2,470837623087139E-001	1,000000000000000E+000	3,1619459E-002	38	5,6949954E+000	1,096209972307406E+002	1,2262282E-004
2	1	0	1	0	1,160216970690453E+002	4,9885109E-001	4,9797109E-001	2,475690433699151E-001	1,000000000000000E+000	3,1830117E-002	38	5,6949954E+000	1,104707972092729E+002	1,2328223E-004
2	1	0	1	0	1,168714970475776E+002	5,0055069E-001	4,9967355E-001	2,480125467267311E-001	1,000000000000000E+000	3,2041177E-002	38	5,6949964E+000	1,113205971878051E+002	1,2392530E-004
2	1	0	1	0	1,177212970261098E+002	5,0225019E-001	5,0136793E-001	2,488847132804919E-001	1,000000000000000E+000	3,2252770E-002	38	5,6949954E+000	1,121703971663374E+002	1,2478282E-004
2	1	0	1	0	1,185710970046421E+002	5,0394988E-001	5,0305682E-001	2,493133402490770E-001	1,000000000000000E+000	3,2464951E-002	38	5,6949954E+000	1,130201971448696E+002	1,2541878E-004
2	1	0	1	0	1,194208969831743E+002	5,0564945E-001	5,0476599E-001	2,495492571102069E-001	1,000000000000000E+000	3,2677393E-002	38	5,6949954E+000	1,138699971234018E+002	1,2596398E-004
2	1	0	1	0	1,202705969617091E+002	5,0734890E-001	5,0646102E-001	2,499384283000868E-001	1,000000000000000E+000	3,2890070E-002	38	5,6949964E+000	1,147196971019366E+002	1,2658407E-004
2	1	0	1	0	1,211202969402439E+002	5,0904828E-001	5,0817305E-001	2,507113864712114E-001	1,000000000000000E+000	3,3103272E-002	38	5,6949954E+000	1,155693970804714E+002	1,2740477E-004
2	1	0	1	0	1,219700969187761E+002	5,1074791E-001	5,0986362E-001	2,510159068581141E-001	1,000000000000000E+000	3,3316962E-002	38	5,6949954E+000	1,164191970590036E+002	1,2798388E-004
2	1	0	1	0	1,228198968973084E+002	5,1244748E-001	5,1157379E-001	2,512823610151926E-001	1,000000000000000E+000	3,3530869E-002	38	5,6949964E+000	1,172689970375359E+002	1,2854947E-004
2	1	0	1	0	1,236696968758406E+002	5,1414710E-001	5,1325274E-001	2,518020948829829E-001	1,000000000000000E+000	3,3745140E-002	38	5,6949954E+000	1,181187970160681E+002	1,2923812E-004
2	1	0	1	0	1,245194968543728E+002	5,1584667E-001	5,1494813E-001	2,523522321827274E-001	1,000000000000000E+000	3,3959866E-002	38	5,6949954E+000	1,189685969946004E+002	1,2994831E-004
2	1	0	1	0	1,253692968329051E+002	5,1754630E-001	5,1665628E-001	2,527137033647078E-001	1,000000000000000E+000	3,4174979E-002	38	5,6949954E+000	1,198183969731326E+002	1,3056613E-004
2	1	0	1	0	1,262190968114373E+002	5,1924586E-001	5,1836783E-001	2,529913200588400E-001	1,000000000000000E+000	3,4390327E-002	38	5,6949954E+000	1,206681969516649E+002	1,3114256E-004
2	1	0	1	0	1,270688967899696E+002	5,2094543E-001	5,2006948E-001	2,535630400936486E-001	1,000000000000000E+000	3,4606066E-002	38	5,6949954E+000	1,215179969301971E+002	1,3187040E-004
2	1	0	1	0	1,279184967685069E+002	5,2264470E-001	5,2176744E-001	2,545459182166736E-001	1,000000000000000E+000	3,4822423E-002	38	5,6949954E+000	1,223675969087344E+002	1,3281377E-004
2	1	0	1	0	1,287682967470391E+002	5,2434427E-001	5,2347749E-001	2,553241344408006E-001	1,000000000000000E+000	3,5039559E-002	38	5,6949954E+000	1,232173968872667E+002	1,3365643E-004
2	1	0	1	0	1,296180967255714E+002	5,2604389E-001	5,2516145E-001	2,558785643493329E-001	1,000000000000000E+000	3,5257269E-002	38	5,6949954E+000	1,240671968657989E+002	1,3437755E-004
2	1	0	1	0	1,304678967041036E+002	5,2774352E-001	5,2686375E-001	2,566153637795350E-001	1,000000000000000E+000	3,5475526E-002	38	5,6949964E+000	1,249169968443312E+002	1,3520134E-004
2	1	0	1	0	1,313176966826359E+002	5,2944309E-001	5,2857238E-001	2,570071214360741E-001	1,000000000000000E+000	3,5694260E-002	38	5,6949954E+000	1,257667968228634E+002	1,3584687E-004
2	1	0	1	0	1,321674966611681E+002	5,3114265E-001	5,3027254E-001	2,578070191447681E-001	1,000000000000000E+000	3,5913523E-002	38	5,6949954E+000	1,266165968013956E+002	1,3670798E-004
2	1	0	1	0	1,330172966397004E+002	5,3284234E-001	5,3198624E-001	2,580046999052690E-001	1,000000000000000E+000	3,6133189E-002	38	5,6949954E+000	1,274663967799279E+002	1,3725495E-004
2	1	0	1	0	1,338670966182326E+002	5,3454185E-001	5,3366691E-001	2,591985507340797E-001	1,000000000000000E+000	3,6353435E-002	38	5,6949954E+000	1,283161967584601E+002	1,3832569E-004
2	1	0	1	0	1,347166965967699E+002	5,3624111E-001	5,3537613E-001	2,599783910503395E-001	1,000000000000000E+000	3,6574505E-002	38	5,6949954E+000	1,291657967369974E+002	1,3918623E-004
2	1	0	1	0	1,355664965753022E+002	5,3794068E-001	5,3708017E-001	2,609542973259260E-001	1,000000000000000E+000	3,6796391E-002	38	5,6949954E+000	1,300155967155297E+002	1,4015338E-004
2	1	0	1	0	1,364162965538344E+002	5,3964031E-001	5,3874958E-001	2,621952805306336E-001	1,000000000000000E+000	3,7019212E-002	38	5,6949954E+000	1,308653966940619E+002	1,4125759E-004
2	1	0	1	0	1,372660965323666E+002	5,4133987E-001	5,4047316E-001	2,636647874833833E-001	1,000000000000000E+000	3,7243187E-002	38	5,6949954E+000	1,317151966725942E+002	1,4250375E-004
2	1	0	1	0	1,381158965108989E+002	5,4303950E-001	5,4215980E-001	2,647899418566555E-001	1,000000000000000E+000	3,7468269E-002	38	5,6949954E+000	1,325649966511264E+002	1,4355846E-004
2	1	0	1	0	1,389656964894311E+002	5,4473907E-001	5,4384989E-001	2,659245755654449E-001	1,000000000000000E+000	3,7694301E-002	38	5,6949954E+000	1,334147966296587E+002	1,4462305E-004
2	1	0	1	0	1,398154964679634E+002	5,4643869E-001	5,4555744E-001	2,673700977471047E-001	1,000000000000000E+000	3,7921395E-002	38	5,6949954E+000	1,342645966081909E+002	1,4586575E-004
2	1	0	1	0	1,406651964464982E+002	5,4813802E-001	5,4726183E-001	2,686930075375882E-001	1,000000000000000E+000	3,8149655E-002	38	5,6949959E+000	1,351142965867257E+002	1,4704543E-004
2	1	0	1	0	1,415149964250304E+002	5,4983765E-001	5,4895639E-001	2,704485303442739E-001	1,000000000000000E+000	3,8379274E-002	38	5,6949959E+000	1,359640965652579E+002	1,4846445E-004
2	1	0	1	0	1,423646964035652E+002	5,5153704E-001	5,5068207E-001	2,722880315141869E-001	1,000000000000000E+000	3,8610369E-002	38	5,6949954E+000	1,368137965437927E+002	1,4994414E-004
2	1	0	1	0	1,432144963820974E+002	5,5323672E-001	5,5235338E-001	2,739149993583530E-001	1,000000000000000E+000	3,8842965E-002	38	5,6949954E+000	1,376635965223250E+002	1,5129788E-004
2	1	0	1	0	1,440642963606297E+002	5,5493629E-001	5,5405450E-001	2,759195634472578E-001	1,000000000000000E+000	3,9077111E-002	38	5,6949964E+000	1,385133965008572E+002	1,5287448E-004
2	1	0	1	0	1,449140963391619E+002	5,5663586E-001	5,5576909E-001	2,778615118249457E-001	1,000000000000000E+000	3,9312929E-002	38	5,6949954E+000	1,393631964793894E+002	1,5442685E-004
2	1	0	1	0	1,457638963176942E+002	5,5833548E-001	5,5745143E-001	2,800698853609349E-001	1,000000000000000E+000	3,9550520E-002	38	5,6949954E+000	1,402129964579217E+002	1,5612536E-004
2	1	0	1	0	1,466136962962264E+002	5,6003511E-001	5,5916423E-001	2,824354548427443E-001	1,000000000000000E+000	3,9790057E-002	38	5,6949954E+000	1,410627964364539E+002	1,5792780E-004
2	1	0	1	0	1,474634962747587E+002	5,6173468E-001	5,6085277E-001	2,852374934130097E-001	1,000000000000000E+000	4,0031802E-002	38	5,6949954E+000	1,419125964149862E+002	1,5997623E-004
2	1	0	1	0	1,483131962532934E+002	5,6343406E-001	5,6255263E-001	2,880359653546951E-001	1,000000000000000E+000	4,0275924E-002	38	5,6949959E+000	1,427622963935210E+002	1,6203539E-004
2	1	0	1	0	1,491628962318282E+002	5,6513351E-001	5,6426275E-001	2,915003921200567E-001	1,000000000000000E+000	4,0522706E-002	38	5,6949954E+000	1,436119963720557E+002	1,6448282E-004
2	1	0	1	0	1,500126962103604E+002	5,6683308E-001	5,6595582E-001	2,955241536719209E-001	1,000000000000000E+000	4,0772706E-002	38	5,6949954E+000	1,444617963505880E+002	1,6725362E-004
2	1	0	1	0	1,508624961888927E+002	5,6853265E-001	5,6765944E-001	2,998151271780776E-001	1,000000000000000E+000	4,1026264E-002	38	5,6949954E+000	1,453115963291202E+002	1,7019288E-004
2	1	0	1	0	1,517122961674249E+002	5,7023227E-001	5,6936061E-001	3,049448374843560E-001	1,000000000000000E+000	4,1283827E-002	38	5,6949954E+000	1,461613963076525E+002	1,7362359E-004
2	1	0	1	0	1,525620961459572E+002	5,7193184E-001	5,7106459E-001	3,106351561353842E-001	1,000000000000000E+000	4,1545980E-002	38	5,6949954E+000	1,470111962861847E+002	1,7739274E-004
2	1	0	1	0	1,534118961244894E+002	5,7363153E-001	5,7276183E-001	3,161408254013072E-001	1,000000000000000E+000	4,1812908E-002	38	5,6949954E+000	1,478609962647170E+002	1,8107340E-004
2	1	0	1	0	1,542616961030217E+002	5,7533109E-001	5,7445663E-001	3,219434001226151E-001	1,000000000000000E+000	4,2084634E-002	38	5,6949954E+000	1,487107962432492E+002	1,8494252E-004
2	1	0	1	0	1,551112960815590E+002	5,7703030E-001	5,7615507E-001	3,287239895763614E-001	1,000000000000000E+000	4,2361662E-002	38	5,6949964E+000	1,495603962217865E+002	1,8939599E-004
2	1	0	1	0	1,559610960600912E+002	5,7872993E-001	5,7785100E-001	3,361980167739373E-001	1,000000000000000E+000	4,2644817E-002	38	5,6949954E+000	1,504101962003188E+002	1,9427236E-004
2	1	0	1	0	1,568108960386235E+002	5,8042949E-001	5,7955503E-001	3,440951651117987E-001	1,000000000000000E+000	4,2934541E-002	38	5,6949954E+000	1,512599961788510E+002	1,9942208E-004
2	1	0	1	0	1,576606960171557E+002	5,8212906E-001	5,8126086E-001	3,531544203454888E-001	1,000000000000000E+000	4,3231513E-002	38	5,6949954E+000	1,521097961573832E+002	2,0527485E-004
2	1	0	1	0	1,585104959956880E+002	5,8382863E-001	5,8292794E-001	3,635379718242415E-001	1,000000000000000E+000	4,3536779E-002	38	5,6949954E+000	1,529595961359155E+002	2,1191644E-004
2	1	0	1	0	1,593602959742202E+002	5,8552825E-001	5,8463687E-001	3,747223741896342E-001	1,000000000000000E+000	4,3851212E-002	38	5,6949954E+000	1,538093961144477E+002	2,1907651E-004
2	1	0	1	0	1,602100959527525E+002	5,8722788E-001	5,8634704E-001	3,867743476932537E-001	1,000000000000000E+000	4,4175569E-002	38	5,6949954E+000	1,546591960929800E+002	2,2678399E-004
2	1	0	1	0	1,610598959312847E+002	5,8892745E-001	5,8804208E-001	4,001799438513034E-001	1,000000000000000E+000	4,4510730E-002	38	5,6949954E+000	1,555089960715122E+002	2,3532264E-004
2	1	0	1	0	1,619095959098195E+002	5,9062696E-001	5,8975351E-001	4,149879889381580E-001	1,000000000000000E+000	4,4857919E-002	38	5,6949964E+000	1,563586960500470E+002	2,4474063E-004
2	1	0	1	0	1,627592958883542E+002	5,9232628E-001	5,9143794E-001	4,315935474481849E-001	1,000000000000000E+000	4,5218430E-002	38	5,6949954E+000	1,572083960285818E+002	2,5526079E-004
2	1	0	1	0	1,636090958668865E+002	5,9402585E-001	5,9314406E-001	4,498526330997183E-001	1,000000000000000E+000	4,5593858E-002	38	5,6949954E+000	1,580581960071140E+002	2,6682741E-004
2	1	0	1	0	1,644588958454187E+002	5,9572542E-001	5,9483838E-001	4,694488493693250E-001	1,000000000000000E+000	4,5985412E-002	38	5,6949964E+000	1,589079959856463E+002	2,7924619E-004
2	1	0	1	0	1,653086958239510E+002	5,9742510E-001	5,9654361E-001	4,910189761807016E-001	1,000000000000000E+000	4,6394512E-002	38	5,6949954E+000	1,597577959641785E+002	2,9291422E-004
2	1	0	1	0	1,661584958024832E+002	5,9912467E-001	5,9823978E-001	5,149388198006051E-001	1,000000000000000E+000	4,6822987E-002	38	5,6949954E+000	1,606075959427108E+002	3,0805689E-004
2	1	0	1	0	1,670082957810155E+002	6,0082430E-001	5,9994912E-001	5,411928169549283E-001	1,000000000000000E+000	4,7272824E-002	38	5,6949954E+000	1,614573959212430E+002	3,2468815E-004
2	1	0	1	0	1,678580957595477E+002	6,0252386E-001	6,0163212E-001	5,701377269011969E-001	1,000000000000000E+000	4,7746155E-002	38	5,6949954E+000	1,623071958997753E+002	3,4301318E-004
2	1	0	1	0	1,687078957380800E+002	6,0422349E-001	6,0334522E-001	6,018457535993607E-001	1,000000000000000E+000	4,8245348E-002	38	5,6949954E+000	1,631569958783075E+002	3,6312075E-004
2	1	0	1	0	1,695574957166173E+002	6,0592270E-001	6,0505849E-001	6,370237095252946E-001	1,000000000000000E+000	4,8772901E-002	38	5,6949954E+000	1,640065958568448E+002	3,8543661E-004
2	1	0	1	0	1,704072956951495E+002	6,0762227E-001	6,0675228E-001	6,732363461141748E-001	1,000000000000000E+000	4,9330954E-002	38	5,6949954E+000	1,648563958353770E+002	4,0848769E-004
2	1	0	1	0	1,712570956736818E+002	6,0932183E-001	6,0845113E-001	7,137135769150600E-001	1,000000000000000E+000	4,9921654E-002	38	5,6949954E+000	1,657061958139093E+002	4,3425983E-004
2	1	0	1	0	1,721068956522140E+002	6,1102152E-001	6,1016041E-001	7,587297412741565E-001	1,000000000000000E+000	5,0548833E-002	38	5,6949964E+000	1,665559957924415E+002	4,6294686E-004
2	1	0	1	0	1,729566956307463E+002	6,1272109E-001	6,1186492E-001	8,074321083084812E-001	1,000000000000000E+000	5,1215939E-002	38	5,6949954E+000	1,674057957709738E+002	4,9403938E-004
2	1	0	1	0	1,738064956092785E+002	6,1442065E-001	6,1354464E-001	8,598638652858011E-001	1,000000000000000E+000	5,1926088E-002	38	5,6949954E+000	1,682555957495060E+002	5,2756484E-004
2	1	0	1	0	1,746562955878107E+002	6,1612028E-001	6,1526257E-001	9,170828446518483E-001	1,000000000000000E+000	5,2682940E-002	38	5,6949954E+000	1,691053957280383E+002	5,6424673E-004
2	1	0	1	0	1,755059955663455E+002	6,1781967E-001	6,1695164E-001	9,788168012444247E-001	1,000000000000000E+000	5,3490330E-002	38	5,6949959E+000	1,699550957065730E+002	6,0388265E-004
2	1	0	1	0	1,763556955448803E+002	6,1951905E-001	6,1867160E-001	1,045003389519014E+000	1,000000000000000E+000	5,4352231E-002	38	5,6949954E+000	1,708047956851078E+002	6,4651389E-004
2	1	0	1	0	1,772054955234125E+002	6,2121868E-001	6,2036127E-001	1,116118216890218E+000	1,000000000000000E+000	5,5272587E-002	38	5,6949954E+000	1,716545956636401E+002	6,9239654E-004
2	1	0	1	0	1,780552955019448E+002	6,2291831E-001	6,2208080E-001	1,192480448827738E+000	1,000000000000000E+000	5,6255817E-002	38	5,6949954E+000	1,725043956421723E+002	7,4181921E-004
2	1	0	1	0	1,789050954804770E+002	6,2461787E-001	6,2378371E-001	1,274379076627881E+000	1,000000000000000E+000	5,7306428E-002	38	5,6949954E+000	1,733541956207046E+002	7,9493690E-004
2	1	0	1	0	1,797548954590093E+002	6,2631744E-001	6,2547791E-001	1,362290456008601E+000	1,000000000000000E+000	5,8429383E-002	38	5,6949954E+000	1,742039955992368E+002	8,5208256E-004
2	1	0	1	0	1,806046954375415E+002	6,2801701E-001	6,2715882E-001	1,456022877771224E+000	1,000000000000000E+000	5,9629668E-002	38	5,6949954E+000	1,750537955777691E+002	9,1315759E-004
2	1	0	1	0	1,814544954160738E+002	6,2971663E-001	6,2890369E-001	1,555735358200862E+000	1,000000000000000E+000	6,0912218E-002	38	5,6949954E+000	1,759035955563013E+002	9,7840768E-004
2	1	0	1	0	1,823041953946085E+002	6,3141602E-001	6,3058901E-001	1,661521232762219E+000	1,000000000000000E+000	6,2282141E-002	38	5,6949959E+000	1,767532955348361E+002	1,0477371E-003
2	1	0	1	0	1,831539953731408E+002	6,3311559E-001	6,3228589E-001	1,774103529487938E+000	1,000000000000000E+000	6,3745022E-002	38	5,6949959E+000	1,776030955133683E+002	1,1217407E-003
2	1	0	1	0	1,840036953516756E+002	6,3481510E-001	6,3399297E-001	1,891834366825057E+000	1,000000000000000E+000	6,5305896E-002	38	5,6949954E+000	1,784527954919031E+002	1,1994097E-003
2	1	0	1	0	1,848534953302078E+002	6,3651460E-001	6,3568729E-001	2,018045456653162E+000	1,000000000000000E+000	6,6970639E-002	38	5,6949954E+000	1,793025954704353E+002	1,2828459E-003
2	1	0	1	0	1,857032953087401E+002	6,3821423E-001	6,3740540E-001	2,149254596928927E+000	1,000000000000000E+000	6,8744995E-002	38	5,6949964E+000	1,801523954489676E+002	1,3699465E-003
2	1	0	1	0	1,865530952872723E+002	6,3991386E-001	6,3908607E-001	2,288284809825864E+000	1,000000000000000E+000	7,0634440E-002	38	5,6949954E+000	1,810021954274998E+002	1,4624109E-003
2	1	0	1	0	1,874028952658045E+002	6,4161342E-001	6,4079320E-001	2,433221626551411E+000	1,000000000000000E+000	7,2644494E-002	38	5,6949954E+000	1,818519954060321E+002	1,5591918E-003
2	1	0	1	0	1,882526952443368E+002	6,4331299E-001	6,4247835E-001	2,584775887724984E+000	1,000000000000000E+000	7,4780598E-002	38	5,6949954E+000	1,827017953845643E+002	1,6606626E-003
2	1	0	1	0	1,891024952228690E+002	6,4501262E-001	6,4418125E-001	2,741930976809158E+000	1,000000000000000E+000	7,7048048E-002	38	5,6949954E+000	1,835515953630966E+002	1,7663005E-003
2	1	0	1	0	1,899520952014063E+002	6,4671183E-001	6,4586610E-001	2,906376460372655E+000	1,000000000000000E+000	7,9451919E-002	38	5,6949964E+000	1,844011953416339E+002	1,8771300E-003
2	1	0	1	0	1,908018951799386E+002	6,4841139E-001	6,4753997E-001	3,079397836722158E+000	1,000000000000000E+000	8,1999958E-002	38	5,6949964E+000	1,852509953201661E+002	1,9940331E-003
2	1	0	1	0	1,916516951584708E+002	6,5011096E-001	6,4927250E-001	3,258090328071972E+000	1,000000000000000E+000	8,4697761E-002	38	5,6949954E+000	1,861007952986984E+002	2,1153884E-003
2	1	0	1	0	1,925014951370031E+002	6,5181065E-001	6,5096241E-001	3,444448939146101E+000	1,000000000000000E+000	8,7550469E-002	38	5,6949954E+000	1,869505952772306E+002	2,2422068E-003
2	1	0	1	0	1,933512951155353E+002	6,5351021E-001	6,5264958E-001	3,637438545846240E+000	1,000000000000000E+000	9,0564631E-002	38	5,6949954E+000	1,878003952557629E+002	2,3739727E-003
2	1	0	1	0	1,942010950940676E+002	6,5520990E-001	6,5436071E-001	3,838127960839998E+000	1,000000000000000E+000	9,3746401E-002	38	5,6949954E+000	1,886501952342951E+002	2,5115202E-003
2	1	0	1	0	1,950508950725998E+002	6,5690947E-001	6,5608168E-001	4,048142888099170E+000	1,000000000000000E+000	9,7102694E-002	38	5,6949954E+000	1,894999952128273E+002	2,6559124E-003
2	1	0	1	0	1,959006950511321E+002	6,5860903E-001	6,5777302E-001	4,270490027782301E+000	1,000000000000000E+000	1,0064287E-001	38	5,6949954E+000	1,903497951913596E+002	2,8090130E-003
2	1	0	1	0	1,967502950296694E+002	6,6030824E-001	6,5947068E-001	4,496455263805153E+000	1,000000000000000E+000	1,0437297E-001	38	5,6949954E+000	1,911993951698969E+002	2,9652803E-003
2	1	0	1	0	1,976000950082016E+002	6,6200787E-001	6,6118830E-001	4,730246926083289E+000	1,000000000000000E+000	1,0829969E-001	38	5,6949954E+000	1,920491951484291E+002	3,1275840E-003
2	1	0	1	0	1,984498949867339E+002	6,6370744E-001	6,6288298E-001	4,974627885449763E+000	1,000000000000000E+000	1,1242936E-001	38	5,6949954E+000	1,928989951269614E+002	3,2975962E-003
2	1	0	1	0	1,992996949652661E+002	6,6540706E-001	6,6458690E-001	5,223127500943733E+000	1,000000000000000E+000	1,1676891E-001	38	5,6949954E+000	1,937487951054936E+002	3,4712220E-003
2	1	0	1	0	2,001494949437983E+002	6,6710657E-001	6,6627741E-001	5,498459477607980E+000	1,000000000000000E+000	1,2133134E-001	38	5,6949954E+000	1,945985950840259E+002	3,6634994E-003
2	1	0	1	0	2,009992949223306E+002	6,6880620E-001	6,6797984E-001	5,778840831133181E+000	1,000000000000000E+000	1,2613074E-001	38	5,6949954E+000	1,954483950625581E+002	3,8601491E-003
2	1	0	1	0	2,018490949008628E+002	6,7050588E-001	6,6966003E-001	6,051236856207964E+000	1,000000000000000E+000	1,3116424E-001	38	5,6949954E+000	1,962981950410904E+002	4,0522716E-003
2	1	0	1	0	2,026988948793951E+002	6,7220539E-001	6,7136705E-001	6,324629082716541E+000	1,000000000000000E+000	1,3643016E-001	38	5,6949954E+000	1,971479950196226E+002	4,2461473E-003
2	1	0	1	0	2,035485948579299E+002	6,7390490E-001	6,7306554E-001	6,615548669779212E+000	1,000000000000000E+000	1,4193510E-001	38	5,6949964E+000	1,979976949981574E+002	4,4526979E-003
2	1	0	1	0	2,043982948364646E+002	6,7560422E-001	6,7478186E-001	6,919249626291148E+000	1,000000000000000E+000	1,4769338E-001	38	5,6949964E+000	1,988473949766922E+002	4,6689841E-003
2	1	0	1	0	2,049481948225730E+002	6,7670429E-001	6,7588156E-001	7,109626988195032E+000	1,000000000000000E+000	1,5152967E-001	38	5,6949987E+000	1,993972949628005E+002	4,8052659E-003
2	1	0	0	0	2,050987948187685E+002	6,7700434E-001	6,7616928E-001	7,190815333432930E+000	1,000000000000000E+000	1,5260562E-001	38	5,6949992E+000	1,995478949589960E+002	4,8622084E-003
2	1	0	1	0	2,055486948074031E+002	6,7610413E-001	6,7527694E-001	6,975696897949476E+000	1,000000000000000E+000	1,5574856E-001	38	5,6949954E+000	1,999977949476306E+002	4,7105271E-003
2	1	0	1	0	2,063984947859353E+002	6,7440456E-001	6,7357105E-001	6,624806554011059E+000	1,000000000000000E+000	1,6151842E-001	38	5,6949954E+000	2,008475949261629E+002	4,4622780E-003
2	1	0	1	0	2,072481947644701E+002	6,7270517E-001	6,7186230E-001	6,299277494315660E+000	1,000000000000000E+000	1,6700029E-001	38	5,6949959E+000	2,016972949046976E+002	4,2322469E-003
2	1	0	1	0	2,080978947430049E+002	6,7100579E-001	6,7016572E-001	5,982706646348518E+000	1,000000000000000E+000	1,7221099E-001	38	5,6949954E+000	2,025469948832324E+002	4,0094047E-003
2	1	0	1	0	2,089476947215371E+002	6,6930616E-001	6,6846079E-001	5,661761769716506E+000	1,000000000000000E+000	1,7714985E-001	38	5,6949954E+000	2,033967948617646E+002	3,7846658E-003
2	1	0	1	0	2,097974947000694E+002	6,6760659E-001	6,6675413E-001	5,339050970077764E+000	1,000000000000000E+000	1,8181607E-001	38	5,6949954E+000	2,042465948402969E+002	3,5598343E-003
2	1	0	1	0	2,106472946786016E+002	6,6590697E-001	6,6508204E-001	5,045231621541660E+000	1,000000000000000E+000	1,8622060E-001	38	5,6949954E+000	2,050963948188291E+002	3,3554928E-003
2	1	0	1	0	2,114970946571339E+002	6,6420734E-001	6,6340166E-001	4,791254498674540E+000	1,000000000000000E+000	1,9039343E-001	38	5,6949954E+000	2,059461947973614E+002	3,1785262E-003
2	1	0	1	0	2,123468946356661E+002	6,6250777E-001	6,6168410E-001	4,522048133695222E+000	1,000000000000000E+000	1,9434389E-001	38	5,6949954E+000	2,067959947758936E+002	2,9921674E-003
2	1	0	1	0	2,131966946141984E+002	6,6080815E-001	6,5997088E-001	4,261775376797210E+000	1,000000000000000E+000	1,9806923E-001	38	5,6949954E+000	2,076457947544259E+002	2,8126477E-003
2	1	0	1	0	2,140463945927331E+002	6,5910870E-001	6,5829349E-001	4,017388741743837E+000	1,000000000000000E+000	2,0158048E-001	38	5,6949959E+000	2,084954947329607E+002	2,6446208E-003
2	1	0	1	0	2,148961945712654E+002	6,5740919E-001	6,5658802E-001	3,780665786301732E+000	1,000000000000000E+000	2,0488772E-001	38	5,6949959E+000	2,093452947114929E+002	2,4823397E-003
2	1	0	1	0	2,157458945498001E+002	6,5570980E-001	6,5487170E-001	3,559187765170741E+000	1,000000000000000E+000	2,0800011E-001	38	5,6949954E+000	2,101949946900277E+002	2,3308115E-003
2	1	0	1	0	2,165956945283324E+002	6,5401018E-001	6,5315360E-001	3,351193228597250E+000	1,000000000000000E+000	2,1093085E-001	38	5,6949954E+000	2,110447946685599E+002	2,1888439E-003
2	1	0	1	0	2,174454945068646E+002	6,5231049E-001	6,5145159E-001	3,155537965123074E+000	1,000000000000000E+000	2,1369025E-001	38	5,6949964E+000	2,118945946470922E+002	2,0556801E-003
2	1	0	1	0	2,182952944853969E+002	6,5061098E-001	6,4974910E-001	2,967319998912512E+000	1,000000000000000E+000	2,1628703E-001	38	5,6949954E+000	2,127443946256244E+002	1,9280135E-003
2	1	0	1	0	2,191450944639291E+002	6,4891136E-001	6,4806420E-001	2,790509410190229E+000	1,000000000000000E+000	2,1872886E-001	38	5,6949954E+000	2,135941946041567E+002	1,8084293E-003
2	1	0	1	0	2,199948944424614E+002	6,4721179E-001	6,4635754E-001	2,634533936465044E+000	1,000000000000000E+000	2,2102952E-001	38	5,6949954E+000	2,144439945826889E+002	1,7028509E-003
2	1	0	1	0	2,208446944209936E+002	6,4551216E-001	6,4466715E-001	2,481969820064814E+000	1,000000000000000E+000	2,2319914E-001	38	5,6949954E+000	2,152937945612211E+002	1,6000444E-003
2	1	0	1	0	2,216942943995309E+002	6,4381301E-001	6,4298278E-001	2,337185116062976E+000	1,000000000000000E+000	2,2524244E-001	38	5,6949964E+000	2,161433945397584E+002	1,5027698E-003
2	1	0	1	0	2,225440943780632E+002	6,4211333E-001	6,4128679E-001	2,191822550916628E+000	1,000000000000000E+000	2,2716284E-001	38	5,6949954E+000	2,169931945182907E+002	1,4055868E-003
2	1	0	1	0	2,233938943565954E+002	6,4041376E-001	6,3959450E-001	2,056369526905698E+000	1,000000000000000E+000	2,2896416E-001	38	5,6949954E+000	2,178429944968229E+002	1,3152426E-003
2	1	0	1	0	2,242436943351277E+002	6,3871419E-001	6,3789052E-001	1,925413321681120E+000	1,000000000000000E+000	2,3065241E-001	38	5,6949954E+000	2,186927944753552E+002	1,2282029E-003
2	1	0	1	0	2,250934943136599E+002	6,3701457E-001	6,3619781E-001	1,803632431042054E+000	1,000000000000000E+000	2,3223346E-001	38	5,6949954E+000	2,195425944538874E+002	1,1474669E-003
2	1	0	1	0	2,259432942921921E+002	6,3531500E-001	6,3448513E-001	1,690337261959730E+000	1,000000000000000E+000	2,3371473E-001	38	5,6949954E+000	2,203923944324197E+002	1,0724938E-003
2	1	0	1	0	2,267930942707244E+002	6,3361537E-001	6,3276339E-001	1,582686005511199E+000	1,000000000000000E+000	2,3510240E-001	38	5,6949954E+000	2,212421944109519E+002	1,0014657E-003
2	1	0	1	0	2,276428942492566E+002	6,3191575E-001	6,3106924E-001	1,481011505266145E+000	1,000000000000000E+000	2,3640127E-001	38	5,6949954E+000	2,220919943894842E+002	9,3462080E-004
2	1	0	1	0	2,284924942277939E+002	6,3021654E-001	6,2937182E-001	1,384211605923980E+000	1,000000000000000E+000	2,3761566E-001	38	5,6949964E+000	2,229415943680215E+002	8,7118376E-004
2	1	0	1	0	2,293422942063262E+002	6,2851691E-001	6,2766445E-001	1,293966557258912E+000	1,000000000000000E+000	2,3875098E-001	38	5,6949954E+000	2,237913943465537E+002	8,1217679E-004
2	1	0	1	0	2,301920941848584E+002	6,2681741E-001	6,2596565E-001	1,209161959702186E+000	1,000000000000000E+000	2,3981208E-001	38	5,6949954E+000	2,246411943250860E+002	7,5689383E-004
2	1	0	1	0	2,310418941633907E+002	6,2511778E-001	6,2425864E-001	1,131025687140987E+000	1,000000000000000E+000	2,4080408E-001	38	5,6949954E+000	2,254909943036182E+002	7,0605258E-004
2	1	0	1	0	2,318916941419229E+002	6,2341821E-001	6,2257749E-001	1,055795222263106E+000	1,000000000000000E+000	2,4173099E-001	38	5,6949954E+000	2,263407942821505E+002	6,5731432E-004
2	1	0	1	0	2,327414941204552E+002	6,2171865E-001	6,2086511E-001	9,855897093887123E-001	1,000000000000000E+000	2,4259621E-001	38	5,6949954E+000	2,271905942606827E+002	6,1191828E-004
2	1	0	1	0	2,335912940989874E+002	6,2001902E-001	6,1915630E-001	9,201063821596414E-001	1,000000000000000E+000	2,4340397E-001	38	5,6949954E+000	2,280403942392149E+002	5,6968967E-004
2	1	0	1	0	2,344410940775197E+002	6,1831939E-001	6,1746693E-001	8,574513605626226E-001	1,000000000000000E+000	2,4415734E-001	38	5,6949954E+000	2,288901942177472E+002	5,2944786E-004
2	1	0	1	0	2,352907940560544E+002	6,1662006E-001	6,1575335E-001	7,991332335946160E-001	1,000000000000000E+000	2,4485925E-001	38	5,6949964E+000	2,297398941962820E+002	4,9206894E-004
2	1	0	1	0	2,361404940345892E+002	6,1492062E-001	6,1405933E-001	7,453709376629423E-001	1,000000000000000E+000	2,4551372E-001	38	5,6949954E+000	2,305895941748167E+002	4,5770197E-004
2	1	0	1	0	2,369902940131215E+002	6,1322099E-001	6,1239821E-001	6,955872478467153E-001	1,000000000000000E+000	2,4612428E-001	38	5,6949954E+000	2,314393941533490E+002	4,2597638E-004
2	1	0	1	0	2,378400939916537E+002	6,1152142E-001	6,1068672E-001	6,507064056026404E-001	1,000000000000000E+000	2,4669479E-001	38	5,6949954E+000	2,322891941318812E+002	3,9737776E-004
2	1	0	1	0	2,386898939701859E+002	6,0982180E-001	6,0898954E-001	6,079711783721704E-001	1,000000000000000E+000	2,4722821E-001	38	5,6949954E+000	2,331389941104135E+002	3,7024808E-004
2	1	0	1	0	2,395396939487182E+002	6,0812223E-001	6,0729790E-001	5,668664038637283E-001	1,000000000000000E+000	2,4772596E-001	38	5,6949954E+000	2,339887940889457E+002	3,4425678E-004
2	1	0	1	0	2,403894939272504E+002	6,0642260E-001	6,0558969E-001	5,288381433693425E-001	1,000000000000000E+000	2,4819018E-001	38	5,6949954E+000	2,348385940674780E+002	3,2025893E-004
2	1	0	1	0	2,412392939057827E+002	6,0472298E-001	6,0388380E-001	4,935415580681219E-001	1,000000000000000E+000	2,4862333E-001	38	5,6949954E+000	2,356883940460102E+002	2,9804176E-004
2	1	0	1	0	2,420889938843175E+002	6,0302353E-001	6,0218400E-001	4,605709903534554E-001	1,000000000000000E+000	2,4902743E-001	38	5,6949959E+000	2,365380940245450E+002	2,7734847E-004
2	1	0	1	0	2,429386938628522E+002	6,0132420E-001	6,0047781E-001	4,308858573649275E-001	1,000000000000000E+000	2,4940504E-001	38	5,6949954E+000	2,373877940030798E+002	2,5873739E-004
2	1	0	1	0	2,437884938413845E+002	5,9962463E-001	5,9878296E-001	4,033671440988424E-001	1,000000000000000E+000	2,4975839E-001	38	5,6949954E+000	2,382375939816120E+002	2,4152937E-004
2	1	0	1	0	2,446382938199167E+002	5,9792501E-001	5,9708345E-001	3,777212001591908E-001	1,000000000000000E+000	2,5008926E-001	38	5,6949954E+000	2,390873939601443E+002	2,2553108E-004
2	1	0	1	0	2,454880937984490E+002	5,9622538E-001	5,9538662E-001	3,538789882843183E-001	1,000000000000000E+000	2,5039911E-001	38	5,6949954E+000	2,399371939386765E+002	2,1069482E-004
2	1	0	1	0	2,463378937769812E+002	5,9452587E-001	5,9368324E-001	3,318003979143822E-001	1,000000000000000E+000	2,5068954E-001	38	5,6949954E+000	2,407869939172087E+002	1,9698434E-004
2	1	0	1	0	2,471876937555135E+002	5,9282619E-001	5,9198958E-001	3,115957921940606E-001	1,000000000000000E+000	2,5096202E-001	38	5,6949954E+000	2,416367938957410E+002	1,8446146E-004
2	1	0	1	0	2,480374937340457E+002	5,9112662E-001	5,9028870E-001	2,929154948402711E-001	1,000000000000000E+000	2,5121796E-001	38	5,6949954E+000	2,424865938742732E+002	1,7290471E-004
2	1	0	1	0	2,488871937125805E+002	5,8942717E-001	5,8859402E-001	2,757741254294750E-001	1,000000000000000E+000	2,5145879E-001	38	5,6949959E+000	2,433362938528080E+002	1,6231900E-004
2	1	0	1	0	2,497368936911153E+002	5,8772779E-001	5,8688831E-001	2,601001785189436E-001	1,000000000000000E+000	2,5168568E-001	38	5,6949954E+000	2,441859938313428E+002	1,5264975E-004
2	1	0	1	0	2,505866936696475E+002	5,8602822E-001	5,8519089E-001	2,454409084834288E-001	1,000000000000000E+000	2,5189972E-001	38	5,6949954E+000	2,450357938098750E+002	1,4362979E-004
2	1	0	1	0	2,514364936481797E+002	5,8432859E-001	5,8348405E-001	2,320706419727543E-001	1,000000000000000E+000	2,5210190E-001	38	5,6949954E+000	2,458855937884073E+002	1,3540951E-004
2	1	0	1	0	2,522862936267120E+002	5,8262902E-001	5,8178020E-001	2,198234248845203E-001	1,000000000000000E+000	2,5229317E-001	38	5,6949954E+000	2,467353937669395E+002	1,2788891E-004
2	1	0	1	0	2,531360936052442E+002	5,8092946E-001	5,8008939E-001	2,086378844359889E-001	1,000000000000000E+000	2,5247458E-001	38	5,6949954E+000	2,475851937454718E+002	1,2102862E-004
2	1	0	1	0	2,539858935837765E+002	5,7922977E-001	5,7837707E-001	1,984588561309741E-001	1,000000000000000E+000	2,5264686E-001	38	5,6949954E+000	2,484349937240040E+002	1,1478405E-004
2	1	0	1	0	2,548356935623087E+002	5,7753026E-001	5,7669699E-001	1,892263291305920E-001	1,000000000000000E+000	2,5281093E-001	38	5,6949954E+000	2,492847937025363E+002	1,0912625E-004
2	1	0	1	0	2,556853935408435E+002	5,7583076E-001	5,7500362E-001	1,807357570969947E-001	1,000000000000000E+000	2,5296748E-001	38	5,6949959E+000	2,501344936810710E+002	1,0392372E-004
2	1	0	1	0	2,565350935193783E+002	5,7413143E-001	5,7327789E-001	1,729054670966930E-001	1,000000000000000E+000	2,5311714E-001	38	5,6949964E+000	2,509841936596058E+002	9,9122881E-005
2	1	0	1	0	2,573848934979105E+002	5,7243180E-001	5,7158291E-001	1,653644103781167E-001	1,000000000000000E+000	2,5326031E-001	38	5,6949954E+000	2,518339936381381E+002	9,4519470E-005
2	1	0	1	0	2,582346934764428E+002	5,7073224E-001	5,6988990E-001	1,586571466464537E-001	1,000000000000000E+000	2,5339743E-001	38	5,6949954E+000	2,526837936166703E+002	9,0417103E-005
2	1	0	1	0	2,590844934549750E+002	5,6903261E-001	5,6818825E-001	1,522447058812757E-001	1,000000000000000E+000	2,5352895E-001	38	5,6949954E+000	2,535335935952025E+002	8,6503656E-005
2	1	0	1	0	2,599342934335073E+002	5,6733298E-001	5,6649041E-001	1,461717643553248E-001	1,000000000000000E+000	2,5365520E-001	38	5,6949954E+000	2,543833935737348E+002	8,2804901E-005
2	1	0	1	0	2,607840934120395E+002	5,6563342E-001	5,6479353E-001	1,410976672290529E-001	1,000000000000000E+000	2,5377673E-001	38	5,6949954E+000	2,552331935522670E+002	7,9691046E-005
2	1	0	1	0	2,616338933905718E+002	5,6393385E-001	5,6308079E-001	1,359464867185260E-001	1,000000000000000E+000	2,5389388E-001	38	5,6949954E+000	2,560829935307993E+002	7,6548851E-005
2	1	0	1	0	2,624836933691040E+002	5,6223416E-001	5,6138861E-001	1,313716216194742E-001	1,000000000000000E+000	2,5400695E-001	38	5,6949954E+000	2,569327935093315E+002	7,3750532E-005
2	1	0	1	0	2,633332933476413E+002	5,6053507E-001	5,5969507E-001	1,269112047060714E-001	1,000000000000000E+000	2,5411612E-001	38	5,6949964E+000	2,577823934878688E+002	7,1031573E-005
2	1	0	1	0	2,641830933261735E+002	5,5883545E-001	5,5797726E-001	1,227939524984749E-001	1,000000000000000E+000	2,5422171E-001	38	5,6949964E+000	2,586321934664011E+002	6,8516230E-005
2	1	0	1	0	2,650328933047058E+002	5,5713582E-001	5,5628586E-001	1,189817397087496E-001	1,000000000000000E+000	2,5432396E-001	38	5,6949954E+000	2,594819934449333E+002	6,6187858E-005
2	1	0	1	0	2,658826932832380E+002	5,5543619E-001	5,5457515E-001	1,156384687637368E-001	1,000000000000000E+000	2,5442314E-001	38	5,6949954E+000	2,603317934234656E+002	6,4130218E-005
2	1	0	1	0	2,667324932617703E+002	5,5373663E-001	5,5287439E-001	1,121441952111384E-001	1,000000000000000E+000	2,5451940E-001	38	5,6949954E+000	2,611815934019978E+002	6,2001651E-005
2	1	0	1	0	2,675822932403025E+002	5,5203700E-001	5,5117857E-001	1,091047759566058E-001	1,000000000000000E+000	2,5461295E-001	38	5,6949954E+000	2,620313933805301E+002	6,0136215E-005
2	1	0	1	0	2,684320932188348E+002	5,5033743E-001	5,4947168E-001	1,065409042206252E-001	1,000000000000000E+000	2,5470409E-001	38	5,6949954E+000	2,628811933590623E+002	5,8541209E-005
2	1	0	1	0	2,692818931973670E+002	5,4863787E-001	5,4776841E-001	1,036965103280047E-001	1,000000000000000E+000	2,5479296E-001	38	5,6949954E+000	2,637309933375946E+002	5,6801673E-005
2	1	0	1	0	2,701314931759043E+002	5,4693860E-001	5,4605365E-001	1,010121780017425E-001	1,000000000000000E+000	2,5487944E-001	38	5,6949954E+000	2,645805933161319E+002	5,5158067E-005
2	1	0	1	0	2,709812931544366E+002	5,4523903E-001	5,4436213E-001	9,892682364346883E-002	1,000000000000000E+000	2,5496390E-001	38	5,6949954E+000	2,654303932946641E+002	5,3852018E-005
2	1	0	1	0	2,718310931329688E+002	5,4353940E-001	5,4266149E-001	9,650546966366330E-002	1,000000000000000E+000	2,5504649E-001	38	5,6949954E+000	2,662801932731963E+002	5,2369800E-005
2	1	0	1	0	2,726808931115011E+002	5,4183978E-001	5,4096544E-001	9,411655577351552E-002	1,000000000000000E+000	2,5512701E-001	38	5,6949954E+000	2,671299932517286E+002	5,0913804E-005
2	1	0	1	0	2,735306930900333E+002	5,4014021E-001	5,3927517E-001	9,211231653527574E-002	1,000000000000000E+000	2,5520572E-001	38	5,6949954E+000	2,679797932302608E+002	4,9673887E-005
2	1	0	1	0	2,743804930685656E+002	5,3844064E-001	5,3757530E-001	9,035549760048811E-002	1,000000000000000E+000	2,5528282E-001	38	5,6949954E+000	2,688295932087931E+002	4,8572885E-005
2	1	0	1	0	2,752302930470978E+002	5,3674102E-001	5,3588617E-001	8,838128852673188E-002	1,000000000000000E+000	2,5535831E-001	38	5,6949954E+000	2,696793931873253E+002	4,7362311E-005
2	1	0	1	0	2,760800930256300E+002	5,3504145E-001	5,3417361E-001	8,617393268093432E-002	1,000000000000000E+000	2,5543201E-001	38	5,6949954E+000	2,705291931658576E+002	4,6031841E-005
2	1	0	1	0	2,769297930041648E+002	5,3334206E-001	5,3247035E-001	8,450960875096403E-002	1,000000000000000E+000	2,5550404E-001	38	5,6949964E+000	2,713788931443924E+002	4,4998862E-005
2	1	0	1	0	2,777794929826996E+002	5,3164262E-001	5,3077936E-001	8,312655571784755E-002	1,000000000000000E+000	2,5557476E-001	38	5,6949964E+000	2,722285931229271E+002	4,4121862E-005
2	1	0	1	0	2,786292929612318E+002	5,2994299E-001	5,2907008E-001	8,193801794940558E-002	1,000000000000000E+000	2,5564447E-001	38	5,6949954E+000	2,730783931014594E+002	4,3350952E-005
2	1	0	1	0	2,794790929397641E+002	5,2824342E-001	5,2734143E-001	8,061377229309796E-002	1,000000000000000E+000	2,5571308E-001	38	5,6949954E+000	2,739281930799916E+002	4,2510983E-005
2	1	0	1	0	2,803288929182963E+002	5,2654386E-001	5,2565062E-001	7,917321803383715E-002	1,000000000000000E+000	2,5578052E-001	38	5,6949954E+000	2,747779930585239E+002	4,1617452E-005
2	1	0	1	0	2,811786928968286E+002	5,2484417E-001	5,2394897E-001	7,800737726949980E-002	1,000000000000000E+000	2,5584686E-001	38	5,6949954E+000	2,756277930370561E+002	4,0871884E-005
2	1	0	1	0	2,820284928753608E+002	5,2314466E-001	5,2227485E-001	7,657763988533106E-002	1,000000000000000E+000	2,5591207E-001	38	5,6949954E+000	2,764775930155884E+002	3,9994575E-005
2	1	0	1	0	2,828782928538931E+002	5,2144504E-001	5,2057225E-001	7,520059453144054E-002	1,000000000000000E+000	2,5597611E-001	38	5,6949954E+000	2,773273929941206E+002	3,9147344E-005
2	1	0	1	0	2,837279928324278E+002	5,1974559E-001	5,1885957E-001	7,371160512868002E-002	1,000000000000000E+000	2,5603890E-001	38	5,6949959E+000	2,781770929726554E+002	3,8245973E-005
2	1	0	1	0	2,845776928109626E+002	5,1804626E-001	5,1716131E-001	7,254153302082100E-002	1,000000000000000E+000	2,5610057E-001	38	5,6949964E+000	2,790267929511901E+002	3,7515674E-005
2	1	0	1	0	2,854274927894949E+002	5,1634663E-001	5,1546562E-001	7,128722849847147E-002	1,000000000000000E+000	2,5616124E-001	38	5,6949964E+000	2,798765929297224E+002	3,6746114E-005
2	1	0	1	0	2,862772927680271E+002	5,1464701E-001	5,1375741E-001	7,000161560887674E-002	1,000000000000000E+000	2,5622079E-001	38	5,6949954E+000	2,807263929082546E+002	3,5963847E-005
2	1	0	1	0	2,871270927465594E+002	5,1294744E-001	5,1206654E-001	6,905984142184673E-002	1,000000000000000E+000	2,5627944E-001	38	5,6949954E+000	2,815761928867869E+002	3,5363235E-005
2	1	0	1	0	2,879768927250916E+002	5,1124787E-001	5,1036340E-001	6,760090523724754E-002	1,000000000000000E+000	2,5633702E-001	38	5,6949954E+000	2,824259928653191E+002	3,4501027E-005
2	1	0	1	0	2,888266927036238E+002	5,0954819E-001	5,0866866E-001	6,628965472096859E-002	1,000000000000000E+000	2,5639340E-001	38	5,6949954E+000	2,832757928438514E+002	3,3719469E-005
2	1	0	1	0	2,896764926821561E+002	5,0784862E-001	5,0696868E-001	6,499055876977555E-002	1,000000000000000E+000	2,5644872E-001	38	5,6949954E+000	2,841255928223836E+002	3,2948177E-005
2	1	0	1	0	2,905261926606909E+002	5,0614917E-001	5,0526148E-001	6,371588314428522E-002	1,000000000000000E+000	2,5650290E-001	38	5,6949959E+000	2,849752928009184E+002	3,2193180E-005
2	1	0	1	0	2,913758926392256E+002	5,0444984E-001	5,0356472E-001	6,267560194903127E-002	1,000000000000000E+000	2,5655612E-001	38	5,6949954E+000	2,858249927794532E+002	3,1561223E-005
2	1	0	1	0	2,922256926177579E+002	5,0275022E-001	5,0185913E-001	6,208634196229446E-002	1,000000000000000E+000	2,5660866E-001	38	5,6949954E+000	2,866747927579854E+002	3,1158597E-005
2	1	0	1	0	2,930754925962901E+002	5,0105059E-001	5,0016856E-001	6,121177680911399E-002	1,000000000000000E+000	2,5666055E-001	38	5,6949954E+000	2,875245927365177E+002	3,0616207E-005
2	1	0	1	0	2,939252925748224E+002	4,9935105E-001	4,9847671E-001	6,013887352937777E-002	1,000000000000000E+000	2,5671166E-001	38	5,6949954E+000	2,883743927150499E+002	2,9977828E-005
2	1	0	1	0	2,947750925533546E+002	4,9765149E-001	4,9677998E-001	5,922107560781675E-002	1,000000000000000E+000	2,5676191E-001	38	5,6949954E+000	2,892241926935822E+002	2,9419845E-005
2	1	0	1	0	2,956248925318869E+002	4,9595183E-001	4,9507600E-001	5,809424396139512E-002	1,000000000000000E+000	2,5681129E-001	38	5,6949954E+000	2,900739926721144E+002	2,8761066E-005
2	1	0	1	0	2,964746925104191E+002	4,9425226E-001	4,9338755E-001	5,701772670471406E-002	1,000000000000000E+000	2,5685972E-001	38	5,6949954E+000	2,909237926506466E+002	2,8131837E-005
2	1	0	1	0	2,973243924889539E+002	4,9255282E-001	4,9168766E-001	5,611279331631480E-002	1,000000000000000E+000	2,5690728E-001	38	5,6949959E+000	2,917734926291814E+002	2,7589967E-005
2	1	0	1	0	2,981740924674887E+002	4,9085343E-001	4,8998749E-001	5,502358315511879E-002	1,000000000000000E+000	2,5695401E-001	38	5,6949954E+000	2,926231926077162E+002	2,6960868E-005
2	1	0	1	0	2,990238924460209E+002	4,8915383E-001	4,8829383E-001	5,372790413817485E-002	1,000000000000000E+000	2,5699973E-001	38	5,6949954E+000	2,934729925862484E+002	2,6235004E-005
2	1	0	1	0	2,998736924245532E+002	4,8745424E-001	4,8658645E-001	5,269151286919593E-002	1,000000000000000E+000	2,5704446E-001	38	5,6949954E+000	2,943227925647807E+002	2,5638976E-005
2	1	0	1	0	3,007234924030854E+002	4,8575467E-001	4,8488054E-001	5,149227415263660E-002	1,000000000000000E+000	2,5708821E-001	38	5,6949954E+000	2,951725925433129E+002	2,4967601E-005
2	1	0	1	0	3,015732923816176E+002	4,8405501E-001	4,8318017E-001	5,050263787678666E-002	1,000000000000000E+000	2,5713107E-001	38	5,6949954E+000	2,960223925218452E+002	2,4401874E-005
2	1	0	1	0	3,024230923601499E+002	4,8235545E-001	4,8146552E-001	4,921470867675071E-002	1,000000000000000E+000	2,5717297E-001	38	5,6949954E+000	2,968721925003774E+002	2,3695186E-005
2	1	0	1	0	3,032728923386821E+002	4,8065588E-001	4,7976884E-001	4,881939327579560E-002	1,000000000000000E+000	2,5721416E-001	38	5,6949954E+000	2,977219924789097E+002	2,3422024E-005
2	1	0	1	0	3,041224923172194E+002	4,7895661E-001	4,7807041E-001	4,789746367186720E-002	1,000000000000000E+000	2,5725475E-001	38	5,6949964E+000	2,985715924574470E+002	2,2898361E-005
2	1	0	1	0	3,049722922957517E+002	4,7725704E-001	4,7637269E-001	4,694079967349253E-002	1,000000000000000E+000	2,5729457E-001	38	5,6949954E+000	2,994213924359792E+002	2,2361315E-005
2	1	0	1	0	3,058220922742839E+002	4,7555745E-001	4,7466427E-001	4,640888232279039E-002	1,000000000000000E+000	2,5733376E-001	38	5,6949954E+000	3,002711924145115E+002	2,2028638E-005
2	1	0	1	0	3,066718922528162E+002	4,7385785E-001	4,7295761E-001	4,525670516637259E-002	1,000000000000000E+000	2,5737220E-001	38	5,6949954E+000	3,011209923930437E+002	2,1404503E-005
2	1	0	1	0	3,075216922313484E+002	4,7215828E-001	4,7127688E-001	4,420711985933812E-002	1,000000000000000E+000	2,5740972E-001	38	5,6949954E+000	3,019707923715760E+002	2,0833793E-005
2	1	0	1	0	3,083714922098807E+002	4,7045863E-001	4,6956822E-001	4,353747188730039E-002	1,000000000000000E+000	2,5744650E-001	38	5,6949954E+000	3,028205923501082E+002	2,0443813E-005
2	1	0	1	0	3,092212921884129E+002	4,6875906E-001	4,6786627E-001	4,252314814283886E-002	1,000000000000000E+000	2,5748259E-001	38	5,6949954E+000	3,036703923286404E+002	1,9895147E-005
2	1	0	1	0	3,100710921669452E+002	4,6705946E-001	4,6618000E-001	4,152145637621124E-002	1,000000000000000E+000	2,5751781E-001	38	5,6949954E+000	3,045201923071727E+002	1,9356472E-005
2	1	0	1	0	3,109207921454799E+002	4,6536005E-001	4,6447659E-001	4,051558979008679E-002	1,000000000000000E+000	2,5755215E-001	38	5,6949959E+000	3,053698922857075E+002	1,8818542E-005
2	1	0	1	0	3,117704921240147E+002	4,6366063E-001	4,6278143E-001	3,937505977988787E-002	1,000000000000000E+000	2,5758561E-001	38	5,6949954E+000	3,062195922642422E+002	1,8222046E-005
2	1	0	1	0	3,126202921025470E+002	4,6196106E-001	4,6107429E-001	3,881788960609672E-002	1,000000000000000E+000	2,5761834E-001	38	5,6949954E+000	3,070693922427745E+002	1,7897932E-005
2	1	0	1	0	3,134700920810792E+002	4,6026146E-001	4,5937723E-001	3,764509482212774E-002	1,000000000000000E+000	2,5765032E-001	38	5,6949954E+000	3,079191922213067E+002	1,7293300E-005
2	1	0	1	0	3,143198920596114E+002	4,5856184E-001	4,5768651E-001	3,689175785136284E-002	1,000000000000000E+000	2,5768149E-001	38	5,6949954E+000	3,087689921998390E+002	1,6884860E-005
2	1	0	1	0	3,151696920381437E+002	4,5686227E-001	4,5598799E-001	3,589736926350373E-002	1,000000000000000E+000	2,5771189E-001	38	5,6949954E+000	3,096187921783712E+002	1,6368769E-005
2	1	0	1	0	3,160194920166759E+002	4,5516267E-001	4,5430005E-001	3,518205086222920E-002	1,000000000000000E+000	2,5774160E-001	38	5,6949954E+000	3,104685921569035E+002	1,5983207E-005
2	1	0	1	0	3,168692919952082E+002	4,5346305E-001	4,5258927E-001	3,404658553993956E-002	1,000000000000000E+000	2,5777051E-001	38	5,6949954E+000	3,113183921354357E+002	1,5409119E-005
2	1	0	1	0	3,177190919737404E+002	4,5176348E-001	4,5088157E-001	3,348804607665051E-002	1,000000000000000E+000	2,5779870E-001	38	5,6949954E+000	3,121681921139680E+002	1,5099143E-005
2	1	0	1	0	3,185686919522777E+002	4,5006427E-001	4,4917542E-001	3,251827023828524E-002	1,000000000000000E+000	2,5782627E-001	38	5,6949954E+000	3,130177920925053E+002	1,4606408E-005
2	1	0	1	0	3,194184919308100E+002	4,4836465E-001	4,4749668E-001	3,163500151437473E-002	1,000000000000000E+000	2,5785300E-001	38	5,6949954E+000	3,138675920710375E+002	1,4156558E-005
2	1	0	1	0	3,202682919093422E+002	4,4666508E-001	4,4579694E-001	3,072086649620687E-002	1,000000000000000E+000	2,5787899E-001	38	5,6949954E+000	3,147173920495698E+002	1,3695269E-005
2	1	0	1	0	3,211180918878745E+002	4,4496545E-001	4,4410321E-001	2,996471975913062E-002	1,000000000000000E+000	2,5790429E-001	38	5,6949954E+000	3,155671920281020E+002	1,3307428E-005
2	1	0	1	0	3,219678918664067E+002	4,4326586E-001	4,4239452E-001	2,944562269348755E-002	1,000000000000000E+000	2,5792903E-001	38	5,6949954E+000	3,164169920066342E+002	1,3026583E-005
2	1	0	1	0	3,228176918449390E+002	4,4156626E-001	4,4068065E-001	2,881066589278980E-002	1,000000000000000E+000	2,5795329E-001	38	5,6949954E+000	3,172667919851665E+002	1,2696303E-005
2	1	0	1	0	3,236674918234712E+002	4,3986669E-001	4,3898603E-001	2,808686273022321E-002	1,000000000000000E+000	2,5797698E-001	38	5,6949954E+000	3,181165919636987E+002	1,2329740E-005
2	1	0	1	0	3,245172918020035E+002	4,3816707E-001	4,3727615E-001	2,716026424515428E-002	1,000000000000000E+000	2,5799996E-001	38	5,6949954E+000	3,189663919422310E+002	1,1876536E-005
2	1	0	1	0	3,253668917805408E+002	4,3646786E-001	4,3559137E-001	2,676146388276235E-002	1,000000000000000E+000	2,5802237E-001	38	5,6949954E+000	3,198159919207683E+002	1,1657063E-005
2	1	0	1	0	3,262166917590730E+002	4,3476823E-001	4,3389079E-001	2,630505497398336E-002	1,000000000000000E+000	2,5804445E-001	38	5,6949954E+000	3,206657918993005E+002	1,1413521E-005
2	1	0	1	0	3,270664917376052E+002	4,3306863E-001	4,3218049E-001	2,546434927112473E-002	1,000000000000000E+000	2,5806597E-001	38	5,6949954E+000	3,215155918778328E+002	1,1005195E-005
2	1	0	1	0	3,279162917161375E+002	4,3136907E-001	4,3048108E-001	2,428592795822104E-002	1,000000000000000E+000	2,5808659E-001	38	5,6949954E+000	3,223653918563650E+002	1,0454633E-005
2	1	0	1	0	3,287660916946697E+002	4,2966947E-001	4,2877635E-001	2,357172693736687E-002	1,000000000000000E+000	2,5810641E-001	38	5,6949954E+000	3,232151918348973E+002	1,0106999E-005
2	1	0	1	0	3,296158916732020E+002	4,2796987E-001	4,2707133E-001	2,269910055864593E-002	1,000000000000000E+000	2,5812560E-001	38	5,6949954E+000	3,240649918134295E+002	9,6941349E-006
2	1	0	1	0	3,304656916517342E+002	4,2627025E-001	4,2538741E-001	2,189773983095961E-002	1,000000000000000E+000	2,5814408E-001	38	5,6949954E+000	3,249147917919618E+002	9,3150229E-006
2	1	0	1	0	3,313154916302665E+002	4,2457068E-001	4,2367950E-001	2,154176250831213E-002	1,000000000000000E+000	2,5816208E-001	38	5,6949954E+000	3,257645917704940E+002	9,1268030E-006
2	1	0	1	0	3,321650916088038E+002	4,2287141E-001	4,2198086E-001	2,084284826626734E-002	1,000000000000000E+000	2,5817961E-001	38	5,6949954E+000	3,266141917490313E+002	8,7952831E-006
2	1	0	1	0	3,330148915873360E+002	4,2117184E-001	4,2029899E-001	2,018223972288830E-002	1,000000000000000E+000	2,5819656E-001	38	5,6949954E+000	3,274639917275636E+002	8,4825751E-006
2	1	0	1	0	3,338646915658683E+002	4,1947225E-001	4,1857469E-001	1,987161005538596E-002	1,000000000000000E+000	2,5821313E-001	38	5,6949954E+000	3,283137917060958E+002	8,3177529E-006
2	1	0	1	0	3,347144915444005E+002	4,1777265E-001	4,1688946E-001	1,901996829696978E-002	1,000000000000000E+000	2,5822920E-001	38	5,6949954E+000	3,291635916846280E+002	7,9292240E-006
2	1	0	1	0	3,355642915229328E+002	4,1607308E-001	4,1519192E-001	1,840643006275527E-002	1,000000000000000E+000	2,5824463E-001	38	5,6949954E+000	3,300133916631603E+002	7,6422011E-006
2	1	0	1	0	3,364140915014650E+002	4,1437349E-001	4,1349360E-001	1,770192748559831E-002	1,000000000000000E+000	2,5825956E-001	38	5,6949954E+000	3,308631916416925E+002	7,3196338E-006
2	1	0	1	0	3,372638914799973E+002	4,1267386E-001	4,1178596E-001	1,663331548622554E-002	1,000000000000000E+000	2,5827372E-001	38	5,6949954E+000	3,317129916202248E+002	6,8493659E-006
2	1	0	1	0	3,381136914585295E+002	4,1097429E-001	4,1008151E-001	1,564696017474110E-002	1,000000000000000E+000	2,5828698E-001	38	5,6949954E+000	3,325627915987570E+002	6,4165288E-006
2	1	0	1	0	3,389633914370643E+002	4,0927491E-001	4,0836865E-001	1,517319277752358E-002	1,000000000000000E+000	2,5829968E-001	38	5,6949959E+000	3,334124915772918E+002	6,1962560E-006
2	1	0	1	0	3,398130914155990E+002	4,0757552E-001	4,0669560E-001	1,447527920041330E-002	1,000000000000000E+000	2,5831184E-001	38	5,6949954E+000	3,342621915558266E+002	5,8870323E-006
2	1	0	1	0	3,406628913941313E+002	4,0587586E-001	4,0498868E-001	1,357127076636417E-002	1,000000000000000E+000	2,5832331E-001	38	5,6949954E+000	3,351119915343588E+002	5,4962111E-006
2	1	0	1	0	3,415126913726635E+002	4,0417627E-001	4,0329209E-001	1,277647400761400E-002	1,000000000000000E+000	2,5833410E-001	38	5,6949954E+000	3,359617915128911E+002	5,1526508E-006
2	1	0	1	0	3,423624913511958E+002	4,0247667E-001	4,0158281E-001	1,196298426043951E-002	1,000000000000000E+000	2,5834420E-001	38	5,6949954E+000	3,368115914914233E+002	4,8041288E-006
2	1	0	1	0	3,432122913297280E+002	4,0077704E-001	3,9988253E-001	1,172695678634847E-002	1,000000000000000E+000	2,5835386E-001	38	5,6949954E+000	3,376613914699556E+002	4,6894052E-006
2	1	0	1	0	3,440620913082603E+002	3,9907753E-001	3,9818347E-001	1,107460483670603E-002	1,000000000000000E+000	2,5836313E-001	38	5,6949954E+000	3,385111914484878E+002	4,4097246E-006
2	1	0	1	0	3,449118912867925E+002	3,9737791E-001	3,9647409E-001	1,037222325504099E-002	1,000000000000000E+000	2,5837183E-001	38	5,6949954E+000	3,393609914270201E+002	4,1123176E-006
2	1	0	1	0	3,457614912653298E+002	3,9567870E-001	3,9477232E-001	1,000686779594945E-002	1,000000000000000E+000	2,5838009E-001	38	5,6949964E+000	3,402105914055574E+002	3,9504343E-006
2	1	0	1	0	3,466112912438621E+002	3,9397907E-001	3,9308164E-001	9,662227032169846E-003	1,000000000000000E+000	2,5838804E-001	38	5,6949954E+000	3,410603913840896E+002	3,7980440E-006
2	1	0	1	0	3,474610912223943E+002	3,9227948E-001	3,9135700E-001	9,317468876227608E-003	1,000000000000000E+000	2,5839573E-001	38	5,6949954E+000	3,419101913626218E+002	3,6464567E-006
2	1	0	1	0	3,483108912009266E+002	3,9057988E-001	3,8965797E-001	8,797793502070939E-003	1,000000000000000E+000	2,5840303E-001	38	5,6949954E+000	3,427599913411541E+002	3,4281304E-006
2	1	0	1	0	3,491606911794588E+002	3,8888028E-001	3,8797551E-001	8,729658141523464E-003	1,000000000000000E+000	2,5841010E-001	38	5,6949954E+000	3,436097913196863E+002	3,3868937E-006
2	1	0	1	0	3,500104911579911E+002	3,8718066E-001	3,8627735E-001	8,027480791113123E-003	1,000000000000000E+000	2,5841683E-001	38	5,6949954E+000	3,444595912982186E+002	3,1008340E-006
2	1	0	1	0	3,508602911365233E+002	3,8548106E-001	3,8457865E-001	7,282728438742329E-003	1,000000000000000E+000	2,5842297E-001	38	5,6949954E+000	3,453093912767508E+002	2,8007819E-006
2	1	0	1	0	3,517100911150555E+002	3,8378149E-001	3,8288078E-001	6,786109209530322E-003	1,000000000000000E+000	2,5842857E-001	38	5,6949954E+000	3,461591912552831E+002	2,5982708E-006
2	1	0	1	0	3,525597910935903E+002	3,8208210E-001	3,8119048E-001	6,394907482963619E-003	1,000000000000000E+000	2,5843382E-001	38	5,6949959E+000	3,470088912338178E+002	2,4376779E-006
2	1	0	1	0	3,534094910721251E+002	3,8038269E-001	3,7948877E-001	5,806480295442118E-003	1,000000000000000E+000	2,5843865E-001	38	5,6949954E+000	3,478585912123526E+002	2,2034940E-006
2	1	0	1	0	3,542592910506573E+002	3,7868306E-001	3,7780437E-001	5,170856560550382E-003	1,000000000000000E+000	2,5844294E-001	38	5,6949954E+000	3,487083911908849E+002	1,9535721E-006
2	1	0	1	0	3,551090910291896E+002	3,7698349E-001	3,7612140E-001	4,276632910961767E-003	1,000000000000000E+000	2,5844657E-001	38	5,6949954E+000	3,495581911694171E+002	1,6085331E-006
2	1	0	1	0	3,559588910077218E+002	3,7528387E-001	3,7441605E-001	2,977182207847630E-003	1,000000000000000E+000	2,5844929E-001	38	5,6949954E+000	3,504079911479494E+002	1,1147048E-006
2	1	0	1	0	3,568086909862541E+002	3,7358427E-001	3,7271073E-001	2,467340383359176E-003	1,000000000000000E+000	2,5845122E-001	38	5,6949954E+000	3,512577911264816E+002	9,1960425E-007
2	0	0	1	0	3,576584909647863E+002	3,7188473E-001	3,7099120E-001	2,086999094395657E-003	1,000000000000000E+000	2,5845280E-001	38	5,6949954E+000	3,521075911050139E+002	7,7425830E-007
2	1	0	1	0	3,585082909433186E+002	3,7018511E-001	3,6930147E-001	1,551553441323392E-003	1,000000000000000E+000	2,5845399E-001	38	5,6949954E+000	3,529573910835461E+002	5,7299098E-007
2	1	0	1	0	3,593580909218508E+002	3,6848551E-001	3,6758682E-001	1,221885474457157E-003	1,000000000000000E+000	2,5845483E-001	38	5,6949954E+000	3,538071910620783E+002	4,4914898E-007
2	1	0	1	0	3,602076909003881E+002	3,6678627E-001	3,6588949E-001	5,815476582004802E-004	1,000000000000000E+000	2,5845525E-001	38	5,6949954E+000	3,546567910406156E+002	2,1278217E-007
2	1	0	1	0	3,610574908789204E+002	3,6508662E-001	3,6419013E-001	1,025417250451505E-004	1,000000000000000E+000	2,5845522E-001	38	5,6949954E+000	0,000000000000000E+000	3,7344684E-008
2	0	0	1	0	3,619072908574526E+002	3,6338711E-001	3,6247754E-001	-3,650177601086553E-004	1,000000000000000E+000	2,5845474E-001	38	5,6949954E+000	8,497999785322463E-001	-1,3231075E-007
2	0	0	1	0	3,627570908359849E+002	3,6168748E-001	3,6077788E-001	-9,243161476518227E-004	1,000000000000000E+000	2,5845385E-001	38	5,6949954E+000	1,699599957064493E+000	-3,3347283E-007
2	0	0	1	0	3,636068908145171E+002	3,5998788E-001	3,5909227E-001	-1,789689469265294E-003	1,000000000000000E+000	2,5845236E-001	38	5,6949954E+000	2,549399935596739E+000	-6,4266362E-007
2	0	0	1	0	3,644566907930493E+002	3,5828829E-001	3,5739112E-001	-2,802070947213693E-003	1,000000000000000E+000	2,5845006E-001	38	5,6949954E+000	3,399199914128985E+000	-1,0014353E-006
2	0	0	1	0	3,653064907715816E+002	3,5658872E-001	3,5568497E-001	-3,497218718674298E-003	1,000000000000000E+000	2,5844708E-001	38	5,6949954E+000	4,248999892661232E+000	-1,2439082E-006
2	0	0	1	0	3,661561907501164E+002	3,5488930E-001	3,5397494E-001	-3,902103534583420E-003	1,000000000000000E+000	2,5844359E-001	38	5,6949959E+000	5,098699871196004E+000	-1,3812469E-006
2	1	0	1	0	3,670058907286511E+002	3,5318992E-001	3,5228047E-001	-4,511649324559414E-003	1,000000000000000E+000	2,5843972E-001	38	5,6949954E+000	5,948399849730777E+000	-1,5893660E-006
2	0	0	1	0	3,678556907071834E+002	3,5149029E-001	3,5058028E-001	-5,043401030131858E-003	1,000000000000000E+000	2,5843534E-001	38	5,6949954E+000	6,798199828263023E+000	-1,7681169E-006
2	0	0	1	0	3,687054906857156E+002	3,4979066E-001	3,4891057E-001	-5,753844146643303E-003	1,000000000000000E+000	2,5843045E-001	38	5,6949954E+000	7,647999806795269E+000	-2,0075770E-006
2	0	0	1	0	3,695552906642479E+002	3,4809110E-001	3,4720263E-001	-6,143713185974523E-003	1,000000000000000E+000	2,5842506E-001	38	5,6949954E+000	8,497799785327516E+000	-2,1331134E-006
2	0	0	1	0	3,704050906427801E+002	3,4639150E-001	3,4549814E-001	-6,989549752330237E-003	1,000000000000000E+000	2,5841916E-001	38	5,6949954E+000	9,347599763859762E+000	-2,4148765E-006
2	0	0	1	0	3,712548906213124E+002	3,4469193E-001	3,4381181E-001	-7,823751198743553E-003	1,000000000000000E+000	2,5841251E-001	38	5,6949954E+000	1,019739974239201E+001	-2,6898981E-006
2	0	0	1	0	3,721046905998446E+002	3,4299234E-001	3,4211370E-001	-8,192047341949504E-003	1,000000000000000E+000	2,5840539E-001	38	5,6949954E+000	1,104719972092425E+001	-2,8026116E-006
2	0	0	1	0	3,729544905783769E+002	3,4129268E-001	3,4041083E-001	-9,156813152697979E-003	1,000000000000000E+000	2,5839767E-001	38	5,6949954E+000	1,189699969945650E+001	-3,1170784E-006
2	0	0	1	0	3,738040905569142E+002	3,3959350E-001	3,3869839E-001	-9,510163319967943E-003	1,000000000000000E+000	2,5838941E-001	38	5,6949954E+000	1,274659967799380E+001	-3,2210769E-006
2	0	0	1	0	3,746538905354464E+002	3,3789390E-001	3,3703363E-001	-9,759151542609756E-003	1,000000000000000E+000	2,5838092E-001	38	5,6949954E+000	1,359639965652605E+001	-3,2891624E-006
2	0	0	1	0	3,755036905139787E+002	3,3619434E-001	3,3532342E-001	-1,038088990978817E-002	1,000000000000000E+000	2,5837207E-001	38	5,6949954E+000	1,444619963505829E+001	-3,4809555E-006
2	0	0	1	0	3,763534904925109E+002	3,3449471E-001	3,3362743E-001	-1,111554867815850E-002	1,000000000000000E+000	2,5836262E-001	38	5,6949954E+000	1,529599961359054E+001	-3,7084519E-006
2	0	0	1	0	3,772032904710431E+002	3,3279508E-001	3,3191708E-001	-1,190408207486685E-002	1,000000000000000E+000	2,5835255E-001	38	5,6949954E+000	1,614579959212278E+001	-3,9511683E-006
2	0	0	1	0	3,780530904495754E+002	3,3109552E-001	3,3022130E-001	-1,180377176682315E-002	1,000000000000000E+000	2,5834215E-001	38	5,6949954E+000	1,699559957065503E+001	-3,8978569E-006
2	0	0	1	0	3,789028904281076E+002	3,2939595E-001	3,2852173E-001	-1,223284801867569E-002	1,000000000000000E+000	2,5833163E-001	38	5,6949954E+000	1,784539954918728E+001	-4,0187565E-006
2	0	0	1	0	3,797526904066399E+002	3,2769629E-001	3,2683989E-001	-1,279485177290915E-002	1,000000000000000E+000	2,5832066E-001	38	5,6949954E+000	1,869519952771952E+001	-4,1818680E-006
2	0	0	1	0	3,806022903851772E+002	3,2599714E-001	3,2512397E-001	-1,343952638686807E-002	1,000000000000000E+000	2,5830922E-001	38	5,6949964E+000	1,954479950625682E+001	-4,3695122E-006
2	0	0	1	0	3,814520903637094E+002	3,2429746E-001	3,2342157E-001	-1,363790096735165E-002	1,000000000000000E+000	2,5829741E-001	38	5,6949954E+000	2,039459948478907E+001	-4,4107915E-006
2	0	0	1	0	3,823018903422417E+002	3,2259789E-001	3,2171828E-001	-1,397435901431524E-002	1,000000000000000E+000	2,5828537E-001	38	5,6949954E+000	2,124439946332132E+001	-4,4958065E-006
2	0	0	1	0	3,831516903207739E+002	3,2089832E-001	3,2000485E-001	-1,441972679569262E-002	1,000000000000000E+000	2,5827301E-001	38	5,6949954E+000	2,209419944185356E+001	-4,6143823E-006
2	0	0	1	0	3,840014902993062E+002	3,1919873E-001	3,1829783E-001	-1,454846051082476E-002	1,000000000000000E+000	2,5826040E-001	38	5,6949954E+000	2,294399942038581E+001	-4,6307437E-006
2	0	0	1	0	3,848512902778384E+002	3,1749913E-001	3,1659856E-001	-1,458548426981560E-002	1,000000000000000E+000	2,5824773E-001	38	5,6949954E+000	2,379379939891805E+001	-4,6177433E-006
2	0	0	1	0	3,857010902563707E+002	3,1579953E-001	3,1489524E-001	-1,537222581973270E-002	1,000000000000000E+000	2,5823471E-001	38	5,6949954E+000	2,464359937745030E+001	-4,8406409E-006
2	0	0	1	0	3,865508902349029E+002	3,1409997E-001	3,1319028E-001	-1,603004280318959E-002	1,000000000000000E+000	2,5822106E-001	38	5,6949954E+000	2,549339935598255E+001	-5,0204535E-006
2	0	0	1	0	3,874004902134402E+002	3,1240070E-001	3,1147835E-001	-1,628409483068841E-002	1,000000000000000E+000	2,5820708E-001	38	5,6949954E+000	2,634299933451985E+001	-5,0721428E-006
2	0	0	1	0	3,882502901919725E+002	3,1070116E-001	3,0978534E-001	-1,677620641819363E-002	1,000000000000000E+000	2,5819275E-001	38	5,6949954E+000	2,719279931305209E+001	-5,1970228E-006
2	0	0	1	0	3,891000901705047E+002	3,0900151E-001	3,0812010E-001	-1,755480072131776E-002	1,000000000000000E+000	2,5817788E-001	38	5,6949954E+000	2,804259929158434E+001	-5,4089869E-006
2	0	0	1	0	3,899498901490369E+002	3,0730191E-001	3,0641815E-001	-1,827930310629228E-002	1,000000000000000E+000	2,5816235E-001	38	5,6949954E+000	2,889239927011658E+001	-5,6011104E-006
2	0	0	1	0	3,907996901275692E+002	3,0560231E-001	3,0471265E-001	-1,896416777736434E-002	1,000000000000000E+000	2,5814626E-001	38	5,6949954E+000	2,974219924864883E+001	-5,7786219E-006
2	0	0	1	0	3,916494901061014E+002	3,0390275E-001	3,0304247E-001	-1,938713495550617E-002	1,000000000000000E+000	2,5812966E-001	38	5,6949954E+000	3,059199922718108E+001	-5,8751252E-006
2	0	0	1	0	3,924992900846337E+002	3,0220312E-001	3,0131990E-001	-2,000606533626392E-002	1,000000000000000E+000	2,5811264E-001	38	5,6949954E+000	3,144179920571332E+001	-6,0282255E-006
2	0	0	1	0	3,933490900631659E+002	3,0050352E-001	2,9961365E-001	-2,038614589146520E-002	1,000000000000000E+000	2,5809520E-001	38	5,6949954E+000	3,229159918424557E+001	-6,1079677E-006
2	0	0	1	0	3,941987900417007E+002	2,9880413E-001	2,9791906E-001	-2,075858636271632E-002	1,000000000000000E+000	2,5807741E-001	38	5,6949959E+000	3,314129916278034E+001	-6,1843784E-006
2	0	0	1	0	3,950484900202355E+002	2,9710472E-001	2,9621688E-001	-2,101269440389153E-002	1,000000000000000E+000	2,5805938E-001	38	5,6949954E+000	3,399099914131511E+001	-6,2243148E-006
2	0	0	1	0	3,958982899987677E+002	2,9540512E-001	2,9450384E-001	-2,121431940528466E-002	1,000000000000000E+000	2,5804114E-001	38	5,6949954E+000	3,484079911984736E+001	-6,2476984E-006
2	0	0	1	0	3,967480899773000E+002	2,9370558E-001	2,9281268E-001	-2,132710920744613E-002	1,000000000000000E+000	2,5802279E-001	38	5,6949954E+000	3,569059909837961E+001	-6,2448480E-006
2	0	0	1	0	3,975978899558322E+002	2,9200593E-001	2,9112899E-001	-2,166468019402101E-002	1,000000000000000E+000	2,5800428E-001	38	5,6949954E+000	3,654039907691185E+001	-6,3072166E-006
2	0	0	1	0	3,984476899343645E+002	2,9030630E-001	2,8941685E-001	-2,246170461471753E-002	1,000000000000000E+000	2,5798526E-001	38	5,6949954E+000	3,739019905544410E+001	-6,5007957E-006
2	0	0	1	0	3,992974899128967E+002	2,8860673E-001	2,8770587E-001	-2,311211272367772E-002	1,000000000000000E+000	2,5796562E-001	38	5,6949954E+000	3,823999903397635E+001	-6,6494904E-006
2	0	0	1	0	4,001472898914290E+002	2,8690717E-001	2,8602055E-001	-2,356087506824356E-002	1,000000000000000E+000	2,5794551E-001	38	5,6949954E+000	3,908979901250859E+001	-6,7388942E-006
2	0	0	1	0	4,009968898699663E+002	2,8520790E-001	2,8430787E-001	-2,352894568549230E-002	1,000000000000000E+000	2,5792521E-001	38	5,6949964E+000	3,993939899104589E+001	-6,6894645E-006
2	0	0	1	0	4,018466898484985E+002	2,8350833E-001	2,8260645E-001	-2,389971434959504E-002	1,000000000000000E+000	2,5790480E-001	38	5,6949954E+000	4,078919896957814E+001	-6,7542137E-006
2	0	0	1	0	4,026964898270307E+002	2,8180873E-001	2,8091764E-001	-2,429494589177034E-002	1,000000000000000E+000	2,5788406E-001	38	5,6949954E+000	4,163899894811038E+001	-6,8248792E-006
2	0	0	1	0	4,035462898055630E+002	2,8010911E-001	2,7922076E-001	-2,495393530146236E-002	1,000000000000000E+000	2,5786287E-001	38	5,6949954E+000	4,248879892664263E+001	-6,9676566E-006
2	0	0	1	0	4,043960897840952E+002	2,7840954E-001	2,7751070E-001	-2,542569053568272E-002	1,000000000000000E+000	2,5784117E-001	38	5,6949954E+000	4,333859890517488E+001	-7,0559013E-006
2	0	0	0	0	4,049459897702036E+002	2,7730992E-001	2,7641702E-001	-2,578947223823969E-002	1,000000000000000E+000	2,5782695E-001	38	5,6949987E+000	4,388849889128323E+001	-7,1286490E-006
2	0	0	1	1	4,050761897669145E+002	2,7701002E-001	2,7606478E-001	-2,585435233416811E-002	1,000000000000000E+000	2,5782356E-001	38	5,6949992E+000	4,401869888799411E+001	-7,1374761E-006