Ewe/V	<I>/mA	time/s	cycle number	
-1,4991269E-001	2,058564126491547E-002	1,331459966364491E+001	1,000000000000000E+000
-1,4902450E-001	9,975512614801167E-003	1,333259966319019E+001	1,000000000000000E+000
-1,4732708E-001	9,411163004188039E-003	1,336659966233128E+001	1,000000000000000E+000
-1,4561081E-001	1,055998073707097E-002	1,340059966147237E+001	1,000000000000000E+000
-1,4390458E-001	1,187093412863760E-002	1,343459966061346E+001	1,000000000000000E+000
-1,4219795E-001	1,304895904650043E-002	1,346859965975455E+001	1,000000000000000E+000
-1,4050125E-001	1,418272439968860E-002	1,350259965889563E+001	1,000000000000000E+000
-1,3880825E-001	1,537162853719565E-002	1,353659965803672E+001	1,000000000000000E+000
-1,3710807E-001	1,650822427654930E-002	1,357059965717781E+001	1,000000000000000E+000
-1,3540302E-001	1,771024172558106E-002	1,360459965631890E+001	1,000000000000000E+000
-1,3369998E-001	1,892298984421359E-002	1,363859965545998E+001	1,000000000000000E+000
-1,3200316E-001	2,003380731457588E-002	1,367259965460107E+001	1,000000000000000E+000
-1,3030265E-001	2,112361118179268E-002	1,370659965374216E+001	1,000000000000000E+000
-1,2861633E-001	2,221430824829443E-002	1,374059965288325E+001	1,000000000000000E+000
-1,2689935E-001	2,340261661356630E-002	1,377459965202434E+001	1,000000000000000E+000
-1,2522987E-001	2,454115119689970E-002	1,380859965116542E+001	1,000000000000000E+000
-1,2353281E-001	2,571142690521822E-002	1,384259965030651E+001	1,000000000000000E+000
-1,2183408E-001	2,682790536073312E-002	1,387659964944760E+001	1,000000000000000E+000
-1,2013151E-001	2,796569517340691E-002	1,391059964858869E+001	1,000000000000000E+000
-1,1842838E-001	2,918351031075880E-002	1,394459964772977E+001	1,000000000000000E+000
-1,1673667E-001	3,038835801271500E-002	1,397859964687086E+001	1,000000000000000E+000
-1,1503483E-001	3,133107561188808E-002	1,401259964601195E+001	1,000000000000000E+000
-1,1332837E-001	3,259017318939570E-002	1,404649964515556E+001	1,000000000000000E+000
-1,1162006E-001	3,377981741323310E-002	1,408039964429918E+001	1,000000000000000E+000
-1,0992874E-001	3,489182653356715E-002	1,411439964344027E+001	1,000000000000000E+000
-1,0822188E-001	3,600249476221534E-002	1,414839964258135E+001	1,000000000000000E+000
-1,0652292E-001	3,710868959933607E-002	1,418239964172244E+001	1,000000000000000E+000
-1,0482157E-001	3,831994882784784E-002	1,421639964086353E+001	1,000000000000000E+000
-1,0311377E-001	3,944328356556076E-002	1,425039964000462E+001	1,000000000000000E+000
-1,0142732E-001	4,058047435864875E-002	1,428439963914570E+001	1,000000000000000E+000
-1,0022821E-001	4,144922910685034E-002	1,430839963853941E+001	1,000000000000000E+000
-9,9837720E-002	4,420039430260658E-002	1,431499963837268E+001	1,000000000000000E+000
-1,0073006E-001	2,722162306781678E-002	1,433299963791796E+001	1,000000000000000E+000
-1,0241924E-001	1,572659987232335E-002	1,436699963705905E+001	1,000000000000000E+000
-1,0413170E-001	8,855904130769005E-003	1,440099963620014E+001	1,000000000000000E+000
-1,0582053E-001	3,631165018020972E-003	1,443499963534123E+001	1,000000000000000E+000
-1,0753202E-001	-6,098752647645273E-004	1,446899963448232E+001	1,000000000000000E+000
-1,0922432E-001	-4,248415981692219E-003	1,450299963362340E+001	1,000000000000000E+000
-1,1091720E-001	-7,321564996345786E-003	1,453699963276449E+001	1,000000000000000E+000
-1,1261779E-001	-1,016669695595904E-002	1,457089963190811E+001	1,000000000000000E+000
-1,1433351E-001	-1,272066189494578E-002	1,460479963105172E+001	1,000000000000000E+000
-1,1602247E-001	-1,492903144253432E-002	1,463879963019281E+001	1,000000000000000E+000
-1,1773790E-001	-1,702518805905126E-002	1,467279962933389E+001	1,000000000000000E+000
-1,1943065E-001	-1,888812342531306E-002	1,470679962847498E+001	1,000000000000000E+000
-1,2110289E-001	-2,071245941169755E-002	1,474079962761607E+001	1,000000000000000E+000
-1,2282047E-001	-2,243143756550114E-002	1,477479962675716E+001	1,000000000000000E+000
-1,2451541E-001	-2,397292881960314E-002	1,480879962589825E+001	1,000000000000000E+000
-1,2620278E-001	-2,542247379642493E-002	1,484279962503933E+001	1,000000000000000E+000
-1,2790653E-001	-2,680048787988198E-002	1,487679962418042E+001	1,000000000000000E+000
-1,2960108E-001	-2,819891703074978E-002	1,491079962332151E+001	1,000000000000000E+000
-1,3129826E-001	-2,944474839023312E-002	1,494479962246260E+001	1,000000000000000E+000
-1,3299997E-001	-3,059475829468306E-002	1,497879962160368E+001	1,000000000000000E+000
-1,3469394E-001	-3,174402486183681E-002	1,501279962074477E+001	1,000000000000000E+000
-1,3640699E-001	-3,291698243083352E-002	1,504679961988586E+001	1,000000000000000E+000
-1,3810655E-001	-3,394762395146247E-002	1,508079961902695E+001	1,000000000000000E+000
-1,3981305E-001	-3,499286967780774E-002	1,511479961816804E+001	1,000000000000000E+000
-1,4150926E-001	-3,608610106130059E-002	1,514879961730912E+001	1,000000000000000E+000
-1,4320944E-001	-3,700259294600977E-002	1,518279961645021E+001	1,000000000000000E+000
-1,4490700E-001	-3,791416526473768E-002	1,521679961559130E+001	1,000000000000000E+000
-1,4661705E-001	-3,889652207180894E-002	1,525079961473239E+001	1,000000000000000E+000
-1,4830934E-001	-3,973179571767083E-002	1,528479961387347E+001	1,000000000000000E+000
-1,5001033E-001	-4,065043629079756E-002	1,531869961301709E+001	1,000000000000000E+000
-1,5170467E-001	-4,149488343318797E-002	1,535259961216070E+001	1,000000000000000E+000
-1,5341389E-001	-4,243834700901037E-002	1,538659961130179E+001	1,000000000000000E+000
-1,5511034E-001	-4,321207598150068E-002	1,542059961044288E+001	1,000000000000000E+000
-1,5682386E-001	-4,406165262844280E-002	1,545459960958397E+001	1,000000000000000E+000
-1,5851472E-001	-4,482852648288808E-002	1,548859960872505E+001	1,000000000000000E+000
-1,6020249E-001	-4,564859548918287E-002	1,552259960786614E+001	1,000000000000000E+000
-1,6190107E-001	-4,648968260516995E-002	1,555659960700723E+001	1,000000000000000E+000
-1,6361630E-001	-4,728561324373010E-002	1,559059960614832E+001	1,000000000000000E+000
-1,6530439E-001	-4,802014696724631E-002	1,562459960528940E+001	1,000000000000000E+000
-1,6701472E-001	-4,881354255849113E-002	1,565859960443049E+001	1,000000000000000E+000
-1,6871522E-001	-4,959934149701423E-002	1,569259960357158E+001	1,000000000000000E+000
-1,7041542E-001	-5,043878720425693E-002	1,572659960271267E+001	1,000000000000000E+000
-1,7209859E-001	-5,110730289743520E-002	1,576059960185376E+001	1,000000000000000E+000
-1,7379853E-001	-5,188356303187885E-002	1,579459960099484E+001	1,000000000000000E+000
-1,7552198E-001	-5,265311642324344E-002	1,582859960013593E+001	1,000000000000000E+000
-1,7720795E-001	-5,331626962652086E-002	1,586259959927702E+001	1,000000000000000E+000
-1,7890942E-001	-5,401265477667017E-002	1,589659959841811E+001	1,000000000000000E+000
-1,8060733E-001	-5,483064012878447E-002	1,593059959755919E+001	1,000000000000000E+000
-1,8230665E-001	-5,551882662075491E-002	1,596459959670028E+001	1,000000000000000E+000
-1,8401097E-001	-5,617721136877640E-002	1,599859959584137E+001	1,000000000000000E+000
-1,8571506E-001	-5,689982173134911E-002	1,603259959498246E+001	1,000000000000000E+000
-1,8740107E-001	-5,765085450675045E-002	1,606649959412607E+001	1,000000000000000E+000
-1,8912378E-001	-5,845427969325084E-002	1,610039959326969E+001	1,000000000000000E+000
-1,9080472E-001	-5,925393576762861E-002	1,613439959241077E+001	1,000000000000000E+000
-1,9249876E-001	-5,989831143779134E-002	1,616839959155186E+001	1,000000000000000E+000
-1,9421552E-001	-6,060095363136464E-002	1,620239959069295E+001	1,000000000000000E+000
-1,9592120E-001	-6,140150436476649E-002	1,623639958983404E+001	1,000000000000000E+000
-1,9762352E-001	-6,211160114253311E-002	1,627039958897512E+001	1,000000000000000E+000
-1,9916467E-001	-6,283853149328067E-002	1,630139958819200E+001	1,000000000000000E+000
-1,9988064E-001	-6,267466260628263E-002	1,631699958779791E+001	1,000000000000000E+000
-1,9901922E-001	-5,209487949468872E-002	1,633499958734319E+001	1,000000000000000E+000
-1,9732410E-001	-4,426044874526247E-002	1,636899958648428E+001	1,000000000000000E+000
-1,9562203E-001	-3,941363337253267E-002	1,640299958562537E+001	1,000000000000000E+000
-1,9390988E-001	-3,545037182448141E-002	1,643699958476645E+001	1,000000000000000E+000
-1,9220255E-001	-3,219601032469643E-002	1,647099958390754E+001	1,000000000000000E+000
-1,9050813E-001	-2,923447679859242E-002	1,650499958304863E+001	1,000000000000000E+000
-1,8881810E-001	-2,651159556068272E-002	1,653889958219224E+001	1,000000000000000E+000
-1,8709983E-001	-2,407247745122715E-002	1,657279958133586E+001	1,000000000000000E+000
-1,8539797E-001	-2,174414435557975E-002	1,660679958047695E+001	1,000000000000000E+000
-1,8369749E-001	-1,956721887108864E-002	1,664079957961803E+001	1,000000000000000E+000
-1,8200600E-001	-1,750474326399859E-002	1,667479957875912E+001	1,000000000000000E+000
-1,8030524E-001	-1,569411605487409E-002	1,670879957790021E+001	1,000000000000000E+000
-1,7860653E-001	-1,381538408395494E-002	1,674279957704130E+001	1,000000000000000E+000
-1,7690337E-001	-1,206123642168678E-002	1,677679957618238E+001	1,000000000000000E+000
-1,7520463E-001	-1,035060316053202E-002	1,681079957532347E+001	1,000000000000000E+000
-1,7350699E-001	-8,724614707716682E-003	1,684479957446456E+001	1,000000000000000E+000
-1,7179096E-001	-7,115913305824478E-003	1,687879957360565E+001	1,000000000000000E+000
-1,7011906E-001	-5,565033042785231E-003	1,691279957274674E+001	1,000000000000000E+000
-1,6839850E-001	-4,132327662773595E-003	1,694679957188782E+001	1,000000000000000E+000
-1,6669691E-001	-2,747905271689874E-003	1,698079957102891E+001	1,000000000000000E+000
-1,6501765E-001	-1,294634888253652E-003	1,701479957017000E+001	1,000000000000000E+000
-1,6330397E-001	7,890825606726758E-005	1,704879956931109E+001	1,000000000000000E+000
-1,6159734E-001	1,498946533949667E-003	1,708279956845217E+001	1,000000000000000E+000
-1,5988024E-001	2,749247897440913E-003	1,711679956759326E+001	1,000000000000000E+000
-1,5821435E-001	4,094625963716694E-003	1,715079956673435E+001	1,000000000000000E+000
-1,5649876E-001	5,399916849228262E-003	1,718479956587544E+001	1,000000000000000E+000
-1,5480925E-001	6,566318352042813E-003	1,721879956501652E+001	1,000000000000000E+000
-1,5310875E-001	7,810807892155908E-003	1,725279956415761E+001	1,000000000000000E+000
-1,5140761E-001	9,034583015818470E-003	1,728679956329870E+001	1,000000000000000E+000
-1,5021187E-001	9,957253262402044E-003	1,731069956269494E+001	1,000000000000000E+000
-1,4979804E-001	1,017550239339471E-002	1,731859956249536E+001	2,000000000000000E+000
-1,4890318E-001	1,077516875056975E-002	1,733659956204065E+001	2,000000000000000E+000
-1,4721720E-001	1,199730505049962E-002	1,737059956118173E+001	2,000000000000000E+000
-1,4550403E-001	1,314999704163713E-002	1,740459956032282E+001	2,000000000000000E+000
-1,4380744E-001	1,429598242430077E-002	1,743859955946391E+001	2,000000000000000E+000
-1,4209859E-001	1,542617076029279E-002	1,747259955860500E+001	2,000000000000000E+000
-1,4042193E-001	1,655531512915329E-002	1,750659955774609E+001	2,000000000000000E+000
-1,3870947E-001	1,766285299527230E-002	1,754059955688717E+001	2,000000000000000E+000
-1,3700417E-001	1,880809437352587E-002	1,757459955602826E+001	2,000000000000000E+000
-1,3530234E-001	1,994513810950599E-002	1,760859955516935E+001	2,000000000000000E+000
-1,3360970E-001	2,102540467240038E-002	1,764259955431044E+001	2,000000000000000E+000
-1,3189067E-001	2,215917086232383E-002	1,767659955345152E+001	2,000000000000000E+000
-1,3021713E-001	2,324405625586223E-002	1,771059955259261E+001	2,000000000000000E+000
-1,2851171E-001	2,439585346655809E-002	1,774459955173370E+001	2,000000000000000E+000
-1,2681872E-001	2,548222956920659E-002	1,777859955087479E+001	2,000000000000000E+000
-1,2512524E-001	2,652986109660560E-002	1,781259955001588E+001	2,000000000000000E+000
-1,2343033E-001	2,764917189961139E-002	1,784659954915696E+001	2,000000000000000E+000
-1,2172585E-001	2,877056872239331E-002	1,788059954829805E+001	2,000000000000000E+000
-1,2002652E-001	2,984949351321128E-002	1,791459954743914E+001	2,000000000000000E+000
-1,1833902E-001	3,098504530316859E-002	1,794859954658023E+001	2,000000000000000E+000
-1,1662656E-001	3,211493534945487E-002	1,798259954572131E+001	2,000000000000000E+000
-1,1492567E-001	3,310996156687895E-002	1,801659954486240E+001	2,000000000000000E+000
-1,1323348E-001	3,428635061780239E-002	1,805049954400602E+001	2,000000000000000E+000
-1,1150469E-001	3,547331375193630E-002	1,808439954314963E+001	2,000000000000000E+000
-1,0981766E-001	3,653435566229768E-002	1,811839954229072E+001	2,000000000000000E+000
-1,0812012E-001	3,776692548308352E-002	1,815239954143181E+001	2,000000000000000E+000
-1,0642021E-001	3,874079030174471E-002	1,818639954057289E+001	2,000000000000000E+000
-1,0471454E-001	3,992507373004650E-002	1,822039953971398E+001	2,000000000000000E+000
-1,0301009E-001	4,099103230328205E-002	1,825439953885507E+001	2,000000000000000E+000
-1,0131363E-001	4,207115189819910E-002	1,828839953799616E+001	2,000000000000000E+000
-1,0018208E-001	4,284320436418063E-002	1,831139953741513E+001	2,000000000000000E+000
-9,9791855E-002	4,572638496756554E-002	1,831699953727366E+001	2,000000000000000E+000
-1,0072481E-001	2,856864112254703E-002	1,833499953681894E+001	2,000000000000000E+000
-1,0242163E-001	1,705931207607148E-002	1,836899953596003E+001	2,000000000000000E+000
-1,0410592E-001	1,013675538661118E-002	1,840299953510112E+001	2,000000000000000E+000
-1,0581250E-001	4,956573667641354E-003	1,843699953424220E+001	2,000000000000000E+000
-1,0752236E-001	5,909505475107965E-004	1,847099953338329E+001	2,000000000000000E+000
-1,0921261E-001	-2,970694415125763E-003	1,850499953252438E+001	2,000000000000000E+000
-1,1092555E-001	-6,163657595834576E-003	1,853899953166547E+001	2,000000000000000E+000
-1,1262033E-001	-9,066365232995172E-003	1,857289953080908E+001	2,000000000000000E+000
-1,1431022E-001	-1,157884969688883E-002	1,860679952995270E+001	2,000000000000000E+000
-1,1601888E-001	-1,391463292566186E-002	1,864079952909378E+001	2,000000000000000E+000
-1,1771915E-001	-1,597085104913276E-002	1,867479952823487E+001	2,000000000000000E+000
-1,1941931E-001	-1,793020374407206E-002	1,870879952737596E+001	2,000000000000000E+000
-1,2113215E-001	-1,972071371710610E-002	1,874279952651705E+001	2,000000000000000E+000
-1,2282191E-001	-2,135012860526326E-002	1,877679952565813E+001	2,000000000000000E+000
-1,2452721E-001	-2,298729262656704E-002	1,881079952479922E+001	2,000000000000000E+000
-1,2621531E-001	-2,449257229181950E-002	1,884479952394031E+001	2,000000000000000E+000
-1,2790582E-001	-2,593630532282984E-002	1,887879952308140E+001	2,000000000000000E+000
-1,2960227E-001	-2,726052061370848E-002	1,891279952222249E+001	2,000000000000000E+000
-1,3130376E-001	-2,856536522358494E-002	1,894679952136357E+001	2,000000000000000E+000
-1,3300356E-001	-2,980434115124800E-002	1,898079952050466E+001	2,000000000000000E+000
-1,3469908E-001	-3,091485996537807E-002	1,901479951964575E+001	2,000000000000000E+000
-1,3640507E-001	-3,208573204938137E-002	1,904879951878684E+001	2,000000000000000E+000
-1,3811803E-001	-3,314111297913763E-002	1,908279951792792E+001	2,000000000000000E+000
-1,3982129E-001	-3,418218661863642E-002	1,911679951706901E+001	2,000000000000000E+000
-1,4151524E-001	-3,524799922161015E-002	1,915079951621010E+001	2,000000000000000E+000
-1,4321756E-001	-3,629577625360964E-002	1,918479951535119E+001	2,000000000000000E+000
-1,4491463E-001	-3,721345899248246E-002	1,921879951449228E+001	2,000000000000000E+000
-1,4661968E-001	-3,811564415991586E-002	1,925279951363336E+001	2,000000000000000E+000
-1,4830790E-001	-3,906715438824904E-002	1,928679951277445E+001	2,000000000000000E+000
-1,5001005E-001	-4,002500760968536E-002	1,932069951191806E+001	2,000000000000000E+000
-1,5171480E-001	-4,078747406128963E-002	1,935459951106168E+001	2,000000000000000E+000
-1,5341794E-001	-4,163302603774366E-002	1,938859951020277E+001	2,000000000000000E+000
-1,5510246E-001	-4,240243501226335E-002	1,942259950934385E+001	2,000000000000000E+000
-1,5681253E-001	-4,329999774017745E-002	1,945659950848494E+001	2,000000000000000E+000
-1,5850922E-001	-4,407804734000798E-002	1,949059950762603E+001	2,000000000000000E+000
-1,6021393E-001	-4,492643278536002E-002	1,952459950676712E+001	2,000000000000000E+000
-1,6191541E-001	-4,580000422720315E-002	1,955859950590821E+001	2,000000000000000E+000
-1,6362551E-001	-4,665196676432932E-002	1,959259950504929E+001	2,000000000000000E+000
-1,6531073E-001	-4,731154309774854E-002	1,962659950419038E+001	2,000000000000000E+000
-1,6700374E-001	-4,812550584392725E-002	1,966059950333147E+001	2,000000000000000E+000
-1,6870111E-001	-4,886600206918934E-002	1,969459950247256E+001	2,000000000000000E+000
-1,7040765E-001	-4,966878734194324E-002	1,972859950161364E+001	2,000000000000000E+000
-1,7210889E-001	-5,036785238735320E-002	1,976259950075473E+001	2,000000000000000E+000
-1,7380495E-001	-5,108748423845111E-002	1,979659949989582E+001	2,000000000000000E+000
-1,7551482E-001	-5,185360929317528E-002	1,983059949903691E+001	2,000000000000000E+000
-1,7720734E-001	-5,257368782076804E-002	1,986459949817800E+001	2,000000000000000E+000
-1,7890762E-001	-5,332029209785083E-002	1,989859949731908E+001	2,000000000000000E+000
-1,8059954E-001	-5,401920903568683E-002	1,993259949646017E+001	2,000000000000000E+000
-1,8230186E-001	-5,481230994337238E-002	1,996659949560126E+001	2,000000000000000E+000
-1,8399486E-001	-5,553894700096840E-002	2,000059949474235E+001	2,000000000000000E+000
-1,8571210E-001	-5,619434757863917E-002	2,003459949388343E+001	2,000000000000000E+000
-1,8739377E-001	-5,692572744163849E-002	2,006849949302705E+001	2,000000000000000E+000
-1,8910871E-001	-5,774135497267714E-002	2,010239949217066E+001	2,000000000000000E+000
-1,9080196E-001	-5,836769490088034E-002	2,013639949131175E+001	2,000000000000000E+000
-1,9250090E-001	-5,915855880084542E-002	2,017039949045284E+001	2,000000000000000E+000
-1,9419213E-001	-5,985419969329076E-002	2,020439948959393E+001	2,000000000000000E+000
-1,9591989E-001	-6,060661467563472E-002	2,023839948873501E+001	2,000000000000000E+000
-1,9761622E-001	-6,141000094430660E-002	2,027239948787610E+001	2,000000000000000E+000
-1,9917026E-001	-6,210854935656779E-002	2,030339948709297E+001	2,000000000000000E+000
-1,9990356E-001	-6,211628460071306E-002	2,031899948669889E+001	2,000000000000000E+000
-1,9902927E-001	-5,137465177722295E-002	2,033699948624417E+001	2,000000000000000E+000
-1,9731788E-001	-4,359253152142636E-002	2,037099948538526E+001	2,000000000000000E+000
-1,9560841E-001	-3,873587554153357E-002	2,040499948452634E+001	2,000000000000000E+000
-1,9390213E-001	-3,481508810727965E-002	2,043899948366743E+001	2,000000000000000E+000
-1,9220757E-001	-3,155521093685831E-002	2,047299948280852E+001	2,000000000000000E+000
-1,9050469E-001	-2,863466060898645E-002	2,050699948194961E+001	2,000000000000000E+000
-1,8880697E-001	-2,601984125753000E-002	2,054089948109322E+001	2,000000000000000E+000
-1,8710087E-001	-2,346818951264129E-002	2,057479948023683E+001	2,000000000000000E+000
-1,8539833E-001	-2,118352162506193E-002	2,060879947937792E+001	2,000000000000000E+000
-1,8370715E-001	-1,916441167486474E-002	2,064279947851901E+001	2,000000000000000E+000
-1,8199980E-001	-1,708896935360815E-002	2,067679947766010E+001	2,000000000000000E+000
-1,8029666E-001	-1,509206293212624E-002	2,071079947680118E+001	2,000000000000000E+000
-1,7861000E-001	-1,343850531793570E-002	2,074479947594227E+001	2,000000000000000E+000
-1,7691483E-001	-1,168748691270588E-002	2,077879947508336E+001	2,000000000000000E+000
-1,7520608E-001	-9,984603159864481E-003	2,081279947422445E+001	2,000000000000000E+000
-1,7352395E-001	-8,279931222432424E-003	2,084679947336554E+001	2,000000000000000E+000
-1,7181137E-001	-6,752595507350634E-003	2,088079947250662E+001	2,000000000000000E+000
-1,7010903E-001	-5,169973504280265E-003	2,091479947164771E+001	2,000000000000000E+000
-1,6840938E-001	-3,705525963255230E-003	2,094879947078880E+001	2,000000000000000E+000
-1,6670944E-001	-2,329151193976031E-003	2,098279946992989E+001	2,000000000000000E+000
-1,6500328E-001	-1,000016959579856E-003	2,101679946907097E+001	2,000000000000000E+000
-1,6330007E-001	3,566866988125028E-004	2,105079946821206E+001	2,000000000000000E+000
-1,6161038E-001	1,799078371163887E-003	2,108479946735315E+001	2,000000000000000E+000
-1,5990674E-001	3,104816293330259E-003	2,111879946649424E+001	2,000000000000000E+000
-1,5821281E-001	4,364953133517716E-003	2,115279946563533E+001	2,000000000000000E+000
-1,5652482E-001	5,616894035938461E-003	2,118679946477641E+001	2,000000000000000E+000
-1,5481032E-001	6,876434907098911E-003	2,122079946391750E+001	2,000000000000000E+000
-1,5311864E-001	8,038811957248981E-003	2,125479946305859E+001	2,000000000000000E+000
-1,5142411E-001	9,289560777688208E-003	2,128879946219968E+001	2,000000000000000E+000
-1,5021287E-001	1,012476521178285E-002	2,131269946159591E+001	2,000000000000000E+000
-1,4984007E-001	1,038532640086487E-002	2,132059946139634E+001	3,000000000000000E+000
-1,4892839E-001	1,110301966218688E-002	2,133859946094162E+001	3,000000000000000E+000
-1,4721243E-001	1,223738051885451E-002	2,137259946008271E+001	3,000000000000000E+000
-1,4551657E-001	1,339290403166167E-002	2,140659945922380E+001	3,000000000000000E+000
-1,4380448E-001	1,453993226368772E-002	2,144059945836489E+001	3,000000000000000E+000
-1,4210191E-001	1,565700659148211E-002	2,147459945750597E+001	3,000000000000000E+000
-1,4038993E-001	1,668556113781972E-002	2,150859945664706E+001	3,000000000000000E+000
-1,3871580E-001	1,791678816789516E-002	2,154259945578815E+001	3,000000000000000E+000
-1,3700511E-001	1,913922221319797E-002	2,157659945492924E+001	3,000000000000000E+000
-1,3531294E-001	2,015093766931392E-002	2,161059945407033E+001	3,000000000000000E+000
-1,3359427E-001	2,124327636011003E-002	2,164459945321141E+001	3,000000000000000E+000
-1,3189580E-001	2,234023369692301E-002	2,167859945235250E+001	3,000000000000000E+000
-1,3018966E-001	2,346595152994266E-002	2,171259945149359E+001	3,000000000000000E+000
-1,2850729E-001	2,456335538590801E-002	2,174659945063468E+001	3,000000000000000E+000
-1,2679709E-001	2,566254771227272E-002	2,178059944977576E+001	3,000000000000000E+000
-1,2511437E-001	2,680182642052396E-002	2,181459944891685E+001	3,000000000000000E+000
-1,2342687E-001	2,795884135321114E-002	2,184859944805794E+001	3,000000000000000E+000
-1,2171774E-001	2,898590592303663E-002	2,188259944719903E+001	3,000000000000000E+000
-1,2003060E-001	3,003785836881456E-002	2,191659944634011E+001	3,000000000000000E+000
-1,1833961E-001	3,115105671167845E-002	2,195059944548120E+001	3,000000000000000E+000
-1,1663672E-001	3,221925098296208E-002	2,198459944462229E+001	3,000000000000000E+000
-1,1493405E-001	3,335465521740880E-002	2,201859944376338E+001	3,000000000000000E+000
-1,1323382E-001	3,442072019587428E-002	2,205249944290699E+001	3,000000000000000E+000
-1,1152189E-001	3,574513255443899E-002	2,208639944205061E+001	3,000000000000000E+000
-1,0982496E-001	3,677368509852388E-002	2,212039944119169E+001	3,000000000000000E+000
-1,0813387E-001	3,786066087923262E-002	2,215439944033278E+001	3,000000000000000E+000
-1,0641089E-001	3,899621409072995E-002	2,218839943947387E+001	3,000000000000000E+000
-1,0470130E-001	4,004518606416241E-002	2,222239943861496E+001	3,000000000000000E+000
-1,0301690E-001	4,116270647136863E-002	2,225639943775604E+001	3,000000000000000E+000
-1,0132603E-001	4,232687394687695E-002	2,229039943689713E+001	3,000000000000000E+000
-1,0015763E-001	4,316891093039887E-002	2,231339943631610E+001	3,000000000000000E+000
-9,9803321E-002	4,553563892841339E-002	2,231899943617464E+001	3,000000000000000E+000
-1,0072397E-001	2,884656862897828E-002	2,233699943571992E+001	3,000000000000000E+000
-1,0243081E-001	1,727733095458472E-002	2,237099943486101E+001	3,000000000000000E+000
-1,0412980E-001	1,040156915951233E-002	2,240499943400209E+001	3,000000000000000E+000
-1,0581419E-001	5,141064144936543E-003	2,243899943314318E+001	3,000000000000000E+000
-1,0752331E-001	8,733487125951456E-004	2,247299943228427E+001	3,000000000000000E+000
-1,0922334E-001	-2,813028405228111E-003	2,250699943142536E+001	3,000000000000000E+000
-1,1092255E-001	-5,900483357436287E-003	2,254099943056644E+001	3,000000000000000E+000
-1,1261473E-001	-8,810426550966977E-003	2,257489942971006E+001	3,000000000000000E+000
-1,1432385E-001	-1,137900927142251E-002	2,260879942885367E+001	3,000000000000000E+000
-1,1602842E-001	-1,369094938172561E-002	2,264279942799476E+001	3,000000000000000E+000
-1,1772954E-001	-1,575610892268731E-002	2,267679942713585E+001	3,000000000000000E+000
-1,1943652E-001	-1,774586180545148E-002	2,271079942627694E+001	3,000000000000000E+000
-1,2111804E-001	-1,953532803872804E-002	2,274479942541802E+001	3,000000000000000E+000
-1,2280662E-001	-2,117666623689711E-002	2,277879942455911E+001	3,000000000000000E+000
-1,2452388E-001	-2,280161089493044E-002	2,281279942370020E+001	3,000000000000000E+000
-1,2621294E-001	-2,428036354376660E-002	2,284679942284129E+001	3,000000000000000E+000
-1,2789232E-001	-2,569533597397816E-002	2,288079942198237E+001	3,000000000000000E+000
-1,2959343E-001	-2,712297418293005E-002	2,291479942112346E+001	3,000000000000000E+000
-1,3130747E-001	-2,843690715872066E-002	2,294879942026455E+001	3,000000000000000E+000
-1,3299569E-001	-2,960077424359020E-002	2,298279941940564E+001	3,000000000000000E+000
-1,3469991E-001	-3,081158583972843E-002	2,301679941854673E+001	3,000000000000000E+000
-1,3639995E-001	-3,191286679611946E-002	2,305079941768781E+001	3,000000000000000E+000
-1,3810967E-001	-3,305259266016913E-002	2,308479941682890E+001	3,000000000000000E+000
-1,3980602E-001	-3,400753143796448E-002	2,311879941596999E+001	3,000000000000000E+000
-1,4149207E-001	-3,508780016636581E-002	2,315279941511108E+001	3,000000000000000E+000
-1,4319965E-001	-3,609146862436291E-002	2,318679941425216E+001	3,000000000000000E+000
-1,4489789E-001	-3,696310071245518E-002	2,322079941339325E+001	3,000000000000000E+000
-1,4660728E-001	-3,793175115060862E-002	2,325479941253434E+001	3,000000000000000E+000
-1,4831889E-001	-3,874735010685948E-002	2,328879941167543E+001	3,000000000000000E+000
-1,5001632E-001	-3,970880458193773E-002	2,332269941081904E+001	3,000000000000000E+000
-1,5170692E-001	-4,055723178862519E-002	2,335659940996266E+001	3,000000000000000E+000
-1,5339646E-001	-4,143885068333464E-002	2,339059940910374E+001	3,000000000000000E+000
-1,5511057E-001	-4,226607779673941E-002	2,342459940824483E+001	3,000000000000000E+000
-1,5682040E-001	-4,310328648352879E-002	2,345859940738592E+001	3,000000000000000E+000
-1,5850385E-001	-4,392172216284940E-002	2,349259940652701E+001	3,000000000000000E+000
-1,6018790E-001	-4,479693138455310E-002	2,352659940566809E+001	3,000000000000000E+000
-1,6190344E-001	-4,552773992509140E-002	2,356059940480918E+001	3,000000000000000E+000
-1,6360101E-001	-4,634349220395961E-002	2,359459940395027E+001	3,000000000000000E+000
-1,6531920E-001	-4,709098998500860E-002	2,362859940309136E+001	3,000000000000000E+000
-1,6700745E-001	-4,779974250413943E-002	2,366259940223244E+001	3,000000000000000E+000
-1,6870306E-001	-4,854500672081455E-002	2,369659940137353E+001	3,000000000000000E+000
-1,7039570E-001	-4,933765740497598E-002	2,373059940051462E+001	3,000000000000000E+000
-1,7211220E-001	-5,015623877807218E-002	2,376459939965571E+001	3,000000000000000E+000
-1,7380294E-001	-5,082460547055212E-002	2,379859939879680E+001	3,000000000000000E+000
-1,7550847E-001	-5,153857739060141E-002	2,383259939793788E+001	3,000000000000000E+000
-1,7720661E-001	-5,230544673395321E-002	2,386659939707897E+001	3,000000000000000E+000
-1,7891024E-001	-5,302954853686950E-002	2,390059939622006E+001	3,000000000000000E+000
-1,8059048E-001	-5,372637985419682E-002	2,393459939536115E+001	3,000000000000000E+000
-1,8230534E-001	-5,454988172459718E-002	2,396859939450223E+001	3,000000000000000E+000
-1,8401290E-001	-5,520200386854388E-002	2,400259939364332E+001	3,000000000000000E+000
-1,8570396E-001	-5,588840327800406E-002	2,403659939278441E+001	3,000000000000000E+000
-1,8740641E-001	-5,667262123680092E-002	2,407049939192802E+001	3,000000000000000E+000
-1,8911624E-001	-5,742259265571170E-002	2,410439939107164E+001	3,000000000000000E+000
-1,9081187E-001	-5,800378366620851E-002	2,413839939021273E+001	3,000000000000000E+000
-1,9251488E-001	-5,875754092085106E-002	2,417239938935381E+001	3,000000000000000E+000
-1,9420981E-001	-5,952292152869620E-002	2,420639938849490E+001	3,000000000000000E+000
-1,9591367E-001	-6,021095864707582E-002	2,424039938763599E+001	3,000000000000000E+000
-1,9762661E-001	-6,093804237752931E-002	2,427439938677708E+001	3,000000000000000E+000
-1,9916704E-001	-6,168834957329966E-002	2,430539938599395E+001	3,000000000000000E+000
-1,9991885E-001	-6,143999336795369E-002	2,432099938559986E+001	3,000000000000000E+000
-1,9902055E-001	-5,101535505673355E-002	2,433899938514514E+001	3,000000000000000E+000
-1,9732048E-001	-4,331013244882320E-002	2,437299938428623E+001	3,000000000000000E+000
-1,9561139E-001	-3,853886696379039E-002	2,440699938342732E+001	3,000000000000000E+000
-1,9390823E-001	-3,458618631157129E-002	2,444099938256841E+001	3,000000000000000E+000
-1,9220315E-001	-3,128518332687247E-002	2,447499938170949E+001	3,000000000000000E+000
-1,9051674E-001	-2,841723526671549E-002	2,450899938085058E+001	3,000000000000000E+000
-1,8880679E-001	-2,570654176103321E-002	2,454289937999420E+001	3,000000000000000E+000
-1,8710399E-001	-2,326581751003676E-002	2,457679937913781E+001	3,000000000000000E+000
-1,8540895E-001	-2,102525921509366E-002	2,461079937827890E+001	3,000000000000000E+000
-1,8370523E-001	-1,886949543495578E-002	2,464479937741999E+001	3,000000000000000E+000
-1,8200493E-001	-1,681566218576326E-002	2,467879937656107E+001	3,000000000000000E+000
-1,8029399E-001	-1,502991988627395E-002	2,471279937570216E+001	3,000000000000000E+000
-1,7861417E-001	-1,324745790861917E-002	2,474679937484325E+001	3,000000000000000E+000
-1,7691126E-001	-1,146872168328622E-002	2,478079937398434E+001	3,000000000000000E+000
-1,7522231E-001	-9,728582376283088E-003	2,481479937312542E+001	3,000000000000000E+000
-1,7351571E-001	-8,187983841253271E-003	2,484879937226651E+001	3,000000000000000E+000
-1,7180827E-001	-6,636506771656024E-003	2,488279937140760E+001	3,000000000000000E+000
-1,7011429E-001	-5,092779427286587E-003	2,491679937054869E+001	3,000000000000000E+000
-1,6842178E-001	-3,670356498901135E-003	2,495079936968978E+001	3,000000000000000E+000
-1,6670692E-001	-2,216937158351570E-003	2,498479936883086E+001	3,000000000000000E+000
-1,6501190E-001	-8,240210313559225E-004	2,501879936797195E+001	3,000000000000000E+000
-1,6330731E-001	5,155449271421232E-004	2,505279936711304E+001	3,000000000000000E+000
-1,6160226E-001	1,901755170649718E-003	2,508679936625413E+001	3,000000000000000E+000
-1,5992323E-001	3,175751100798178E-003	2,512079936539521E+001	3,000000000000000E+000
-1,5821816E-001	4,483575182121100E-003	2,515479936453630E+001	3,000000000000000E+000
-1,5651324E-001	5,687977770776370E-003	2,518879936367739E+001	3,000000000000000E+000
-1,5482000E-001	6,945879618797359E-003	2,522279936281848E+001	3,000000000000000E+000
-1,5312211E-001	8,212274438847089E-003	2,525679936195957E+001	3,000000000000000E+000
-1,5141693E-001	9,355130510357461E-003	2,529079936110065E+001	3,000000000000000E+000
-1,5027161E-001	1,024591269387501E-002	2,531369936052215E+001	3,000000000000000E+000
-1,4997765E-001	1,045208860887215E-002	2,532059936034784E+001	3,000000000000000E+000
-1,4983243E-001	1,955559290945530E-002	2,532079936034279E+001	3,000000000000000E+000